TITLE,Blank3
DATA TYPE,FLUORESCENCE SPECTRUM
ORIGIN,JASCO
OWNER,
DATE,2024/10/31
TIME,15:35:00
SPECTROMETER/DATA SYSTEM,JASCO Corp., FP-8350, Rev. 1.00
DELTAX,2
XUNITS,NANOMETERS
YUNITS,INTENSITY
FIRSTX,  300.0000
LASTX,  560.0000
NPOINTS,     131
FIRSTY,    24.10335
MAXY,    31.70264
MINY,    -8.53309
XYDATA
,240,242,244,246,248,250,252,254,256,258,260,262,264,266,268,270,272,274,276,278,280,282,284,286,288,290,292,294,296,298,300,302,304,306,308,310,312,314,316,318,320,322,324,326,328,330,332,334,336,338,340,342,344,346,348,350,352,354,356,358,360,362,364,366,368,370,372,374,376,378,380,382,384,386,388,390,392,394,396,398,400,402,404,406,408,410,412,414,416,418,420,422,424,426,428,430,432,434,436,438,440,442,444,446,448,450
300,24.1033,19.9737,34.6359,41.8207,43.5541,25.6287,32.8958,27.2464,18.7343,40.5921,49.9377,107.885,292.229,1074.27,3176.33,5435.31,5822.04,3844.63,1553.62,479.162,194.19,149.531,163.795,168.783,178.649,226.835,0,0,0,0,0,0,0,0,0,0,0,0,0,0,0,0,0,0,0,0,0,0,0,0,0,0,0,0,0,0,0,0,0,0,0,0,0,0,0,0,0,0,0,0,0,0,0,0,0,0,0,0,0,0,0,0,0,0,0,0,0,0,0,0,0,0,0,0,0,0,0,0,0,0,0,0,0,0,0,0
302,25.4984,9.88359,27.7995,40.3494,47.188,34.6451,42.1958,33.7864,22.0775,35.7401,39.9757,58.284,128.407,394.762,1508.89,3761.87,5691.1,5370.02,3103.54,1236.52,368.511,150.271,147.884,160.398,162.406,164.823,218.81,0,0,0,0,0,0,0,0,0,0,0,0,0,0,0,0,0,0,0,0,0,0,0,0,0,0,0,0,0,0,0,0,0,0,0,0,0,0,0,0,0,0,0,0,0,0,0,0,0,0,0,0,0,0,0,0,0,0,0,0,0,0,0,0,0,0,0,0,0,0,0,0,0,0,0,0,0,0,0
304,22.4332,14.6586,34.6394,30.7676,44.3748,35.294,52.9972,35.2901,25.106,28.7769,35.997,40.065,79.0893,138.838,530.768,1859.68,4150.89,5745.48,4826.4,2704.66,979.628,286.308,141.129,145.948,148.336,150.524,162.253,201.494,0,0,0,0,0,0,0,0,0,0,0,0,0,0,0,0,0,0,0,0,0,0,0,0,0,0,0,0,0,0,0,0,0,0,0,0,0,0,0,0,0,0,0,0,0,0,0,0,0,0,0,0,0,0,0,0,0,0,0,0,0,0,0,0,0,0,0,0,0,0,0,0,0,0,0,0,0,0
306,23.3583,19.177,36.3576,22.5389,32.5693,32.8456,49.5972,25.9969,36.9161,33.4652,31.4491,32.2741,55.1104,79.1821,199.49,676.95,2212.16,4432.42,5505.3,4447.32,2346.01,812.587,230.258,137.112,127.463,140.119,138.114,158.939,208.54,0,0,0,0,0,0,0,0,0,0,0,0,0,0,0,0,0,0,0,0,0,0,0,0,0,0,0,0,0,0,0,0,0,0,0,0,0,0,0,0,0,0,0,0,0,0,0,0,0,0,0,0,0,0,0,0,0,0,0,0,0,0,0,0,0,0,0,0,0,0,0,0,0,0,0,0,0
308,31.081,19.9653,32.4713,21.2778,26.4938,33.4605,48.8138,27.8225,31.8256,37.4035,30.0991,27.4329,41.334,48.3849,93.122,221.661,889.082,2531.42,4654.97,5398.12,4004.12,1944.17,617.598,199.18,124.411,125.34,128.555,137.725,153.806,193.707,0,0,0,0,0,0,0,0,0,0,0,0,0,0,0,0,0,0,0,0,0,0,0,0,0,0,0,0,0,0,0,0,0,0,0,0,0,0,0,0,0,0,0,0,0,0,0,0,0,0,0,0,0,0,0,0,0,0,0,0,0,0,0,0,0,0,0,0,0,0,0,0,0,0,0,0
310,31.7026,19.2524,29.0433,19.6326,22.5593,27.1223,43.3445,30.403,30.1748,30.3204,29.4005,24.5174,38.1511,42.4217,52.1999,97.2213,286.795,1019.1,2868.59,4814.9,5122.72,3552.81,1577.76,503.728,169.888,119.533,116.97,127.103,135.469,144.59,189.867,0,0,0,0,0,0,0,0,0,0,0,0,0,0,0,0,0,0,0,0,0,0,0,0,0,0,0,0,0,0,0,0,0,0,0,0,0,0,0,0,0,0,0,0,0,0,0,0,0,0,0,0,0,0,0,0,0,0,0,0,0,0,0,0,0,0,0,0,0,0,0,0,0,0,0
312,30.5974,17.7317,24.3724,25.623,25.2356,21.9928,27.5524,25.7997,32.5059,32.7473,29.9006,23.8814,35.758,33.6931,43.606,60.0197,116.539,352.672,1304.33,3168.2,4907.61,4798.4,3042.82,1298.55,385.832,138.866,108.729,116.122,124.984,125.913,137.02,183.416,0,0,0,0,0,0,0,0,0,0,0,0,0,0,0,0,0,0,0,0,0,0,0,0,0,0,0,0,0,0,0,0,0,0,0,0,0,0,0,0,0,0,0,0,0,0,0,0,0,0,0,0,0,0,0,0,0,0,0,0,0,0,0,0,0,0,0,0,0,0,0,0,0,0
314,21.4832,19.442,25.1477,20.3456,20.8743,13.7387,27.2245,18.8338,27.1824,36.9336,30.7808,27.5449,33.0186,29.9305,38.0376,44.6164,61.8341,137.205,464.243,1534.22,3464.56,4841.48,4352.67,2576.01,998.613,299.09,118.631,101.889,112.517,116.592,120.342,137.657,178.346,0,0,0,0,0,0,0,0,0,0,0,0,0,0,0,0,0,0,0,0,0,0,0,0,0,0,0,0,0,0,0,0,0,0,0,0,0,0,0,0,0,0,0,0,0,0,0,0,0,0,0,0,0,0,0,0,0,0,0,0,0,0,0,0,0,0,0,0,0,0,0,0,0
316,22.7258,16.1161,21.3894,16.5155,15.7401,15.3005,30.9952,18.1779,24.2825,32.012,33.6848,31.3221,28.086,31.6337,32.7524,37.5637,38.5149,74.8642,167.577,554.241,1791.72,3645.5,4615.03,3871.33,2123.32,784.46,221.443,107.882,95.7532,100.097,112.22,113.463,128.153,160.178,0,0,0,0,0,0,0,0,0,0,0,0,0,0,0,0,0,0,0,0,0,0,0,0,0,0,0,0,0,0,0,0,0,0,0,0,0,0,0,0,0,0,0,0,0,0,0,0,0,0,0,0,0,0,0,0,0,0,0,0,0,0,0,0,0,0,0,0,0,0,0,0
318,18.9347,19.0856,14.5899,18.9547,11.3445,20.907,21.8799,23.0491,17.2097,30.5492,37.8543,32.9815,24.8079,32.7538,29.309,38.9637,37.3941,50.8117,80.6233,185.839,653.282,1991.77,3644.35,4424.31,3427.01,1747.21,585.927,185.777,91.2204,90.2115,96.6238,102.177,102.781,116.324,157.13,0,0,0,0,0,0,0,0,0,0,0,0,0,0,0,0,0,0,0,0,0,0,0,0,0,0,0,0,0,0,0,0,0,0,0,0,0,0,0,0,0,0,0,0,0,0,0,0,0,0,0,0,0,0,0,0,0,0,0,0,0,0,0,0,0,0,0,0,0,0,0
320,8.64995,14.1627,12.9547,18.6573,14.7711,19.9235,14.3927,22.5884,13.2594,26.519,38.3369,35.5985,24.5589,33.6654,30.873,37.6082,35.1723,40.8608,51.9461,89.7251,220.596,824.01,2149.04,3745.65,4125.27,2935.92,1386.9,483.324,132.316,82.8949,79.3271,96.1185,89.2807,97.8196,106.601,146.443,0,0,0,0,0,0,0,0,0,0,0,0,0,0,0,0,0,0,0,0,0,0,0,0,0,0,0,0,0,0,0,0,0,0,0,0,0,0,0,0,0,0,0,0,0,0,0,0,0,0,0,0,0,0,0,0,0,0,0,0,0,0,0,0,0,0,0,0,0,0
322,6.51833,4.71332,15.8719,10.893,10.2682,11.1738,14.9119,17.9263,15.0221,20.1733,31.5299,30.167,30.6315,37.5028,31.6823,30.3698,32.9541,35.2887,39.0272,57.1293,102.365,288.171,923.51,2326.78,3723.09,3721.64,2482.69,1136.04,327.857,106.711,70.5924,84.8372,82.0768,90.3482,91.6498,105.08,136.931,0,0,0,0,0,0,0,0,0,0,0,0,0,0,0,0,0,0,0,0,0,0,0,0,0,0,0,0,0,0,0,0,0,0,0,0,0,0,0,0,0,0,0,0,0,0,0,0,0,0,0,0,0,0,0,0,0,0,0,0,0,0,0,0,0,0,0,0,0
324,11.4431,10.8436,16.5372,11.8323,8.75093,4.33961,15.2495,24.6464,13.4285,22.4015,22.8382,29.8489,38.6679,41.9664,34.563,25.7346,29.6752,28.5442,30.2617,39.8477,58.2751,113.608,311.827,1047.27,2460.18,3579.47,3335.84,2110.06,816.183,250.242,85.0892,72.2995,73.1858,80.7342,87.729,88.2163,98.4896,128.839,0,0,0,0,0,0,0,0,0,0,0,0,0,0,0,0,0,0,0,0,0,0,0,0,0,0,0,0,0,0,0,0,0,0,0,0,0,0,0,0,0,0,0,0,0,0,0,0,0,0,0,0,0,0,0,0,0,0,0,0,0,0,0,0,0,0,0,0
326,20.6687,20.3144,17.5093,10.7136,9.92117,3.13776,13.2708,18.209,13.7846,25.6539,21.7085,28.8827,33.7863,38.7254,34.0238,29.3132,29.9728,24.5858,28.8124,31.3616,39.5352,66.3122,121.162,378.322,1220.61,2532.56,3382.72,2987.04,1615.93,622.16,178.516,70.8461,62.8849,70.7447,77.8548,83.1013,81.6604,98.4715,118.075,0,0,0,0,0,0,0,0,0,0,0,0,0,0,0,0,0,0,0,0,0,0,0,0,0,0,0,0,0,0,0,0,0,0,0,0,0,0,0,0,0,0,0,0,0,0,0,0,0,0,0,0,0,0,0,0,0,0,0,0,0,0,0,0,0,0,0
328,15.1938,21.3667,22.0189,5.89086,8.72154,7.20855,11.2769,14.2086,12.6221,21.2318,22.5314,25.2886,30.8234,28.2929,33.3242,32.6642,30.5566,24.7475,26.1018,31.0627,32.1744,39.9783,58.7176,135.38,469.865,1296.05,2557.94,3170.79,2497.9,1352.75,477.444,149.143,62.4076,59.9562,66.5747,73.1863,72.5767,82.483,82.1175,111.285,0,0,0,0,0,0,0,0,0,0,0,0,0,0,0,0,0,0,0,0,0,0,0,0,0,0,0,0,0,0,0,0,0,0,0,0,0,0,0,0,0,0,0,0,0,0,0,0,0,0,0,0,0,0,0,0,0,0,0,0,0,0,0,0,0,0
330,12.4335,11.5426,15.4415,7.92037,7.51909,9.13902,6.09711,14.841,12.1643,16.346,22.449,18.888,26.0879,22.9901,33.0732,33.5733,26.1818,24.1925,22.3909,25.1384,27.5467,29.9294,37.1197,73.0493,165.256,531.435,1472.86,2536.7,2899.21,2150.37,1057.23,370.309,103.748,58.9192,58.9902,66.0708,67.675,72.8406,69.6355,85.3412,109.501,0,0,0,0,0,0,0,0,0,0,0,0,0,0,0,0,0,0,0,0,0,0,0,0,0,0,0,0,0,0,0,0,0,0,0,0,0,0,0,0,0,0,0,0,0,0,0,0,0,0,0,0,0,0,0,0,0,0,0,0,0,0,0,0,0
332,12.9651,12.3128,9.45796,14.7934,7.085,7.29282,5.63532,14.4065,6.46991,19.6585,15.9174,13.6034,23.5274,17.7184,31.3595,28.6618,27.0993,19.5967,21.8433,23.6686,25.7938,28.2291,27.367,41.7359,71.6867,183.842,614.26,1512.65,2579.33,2651.57,1834.7,831.544,268.916,87.1525,51.5362,56.8085,61.4057,66.4599,61.7869,68.9452,79.7858,105.437,0,0,0,0,0,0,0,0,0,0,0,0,0,0,0,0,0,0,0,0,0,0,0,0,0,0,0,0,0,0,0,0,0,0,0,0,0,0,0,0,0,0,0,0,0,0,0,0,0,0,0,0,0,0,0,0,0,0,0,0,0,0,0,0
334,14.1766,17.6358,13.7104,15.4426,6.38883,2.0257,10.6258,11.1958,8.98247,23.8349,12.1203,9.82141,15.1844,13.5854,25.8224,29.8625,27.5201,20.3918,23.2997,20.3455,20.0324,23.827,20.8753,27.0964,39.9426,75.4019,220.107,689.56,1718.89,2494.68,2403.56,1515.45,650.157,198.958,64.8728,47.9096,55.3228,61.9735,59.8714,60.0586,62.5786,73.7475,100.358,0,0,0,0,0,0,0,0,0,0,0,0,0,0,0,0,0,0,0,0,0,0,0,0,0,0,0,0,0,0,0,0,0,0,0,0,0,0,0,0,0,0,0,0,0,0,0,0,0,0,0,0,0,0,0,0,0,0,0,0,0,0,0
336,15.0073,15.4601,11.7437,8.87535,15.9627,5.63703,9.11229,13.186,11.931,19.3845,13.4442,5.41284,8.77918,13.2418,21.4602,27.1205,27.2701,22.4229,23.3008,18.3769,14.4505,17.8303,18.2613,22.9359,27.1975,43.0082,86.7394,254.635,841.504,1797.66,2424.16,2122.27,1217.98,490.743,143.957,56.0123,48.8813,54.5957,56.4971,57.5562,58.6003,57.3503,70.5636,99.7088,0,0,0,0,0,0,0,0,0,0,0,0,0,0,0,0,0,0,0,0,0,0,0,0,0,0,0,0,0,0,0,0,0,0,0,0,0,0,0,0,0,0,0,0,0,0,0,0,0,0,0,0,0,0,0,0,0,0,0,0,0,0
338,7.77478,7.43122,6.11672,4.2847,15.4254,15.3736,9.08757,16.511,11.2519,13.8576,13.1037,9.33614,8.58289,12.3257,12.9578,20.714,22.8625,20.0468,21.7385,18.8698,14.6944,15.5995,17.5769,21.2326,22.6125,25.4489,49.7741,95.9339,330.184,963.161,1881.27,2286.04,1827.97,992.248,355.49,99.4762,48.6675,44.6296,49.1542,50.1837,55.6946,53.9002,56.4678,64.3864,90.8164,0,0,0,0,0,0,0,0,0,0,0,0,0,0,0,0,0,0,0,0,0,0,0,0,0,0,0,0,0,0,0,0,0,0,0,0,0,0,0,0,0,0,0,0,0,0,0,0,0,0,0,0,0,0,0,0,0,0,0,0,0
340,11.9365,0.151976,5.31692,6.52336,13.7334,7.2293,9.16865,13.9691,9.0245,14.4804,8.66579,12.1825,12.1976,10.2913,13.6197,14.7956,20.7269,17.9781,22.5563,20.1613,15.1737,15.8193,15.5333,16.5821,17.7126,14.2807,30.6254,46.5017,124.444,391.462,1071.39,1850.83,2111.75,1594.39,798.499,273.979,84.0412,40.845,41.1563,44.0768,49.346,48.5813,52.4042,49.6129,63.5834,87.0782,0,0,0,0,0,0,0,0,0,0,0,0,0,0,0,0,0,0,0,0,0,0,0,0,0,0,0,0,0,0,0,0,0,0,0,0,0,0,0,0,0,0,0,0,0,0,0,0,0,0,0,0,0,0,0,0,0,0,0,0
342,13.5669,3.10511,2.24376,9.55222,7.85369,-1.80619,10.2734,11.3018,8.7324,11.8888,10.2606,13.6512,13.035,6.76872,14.2312,11.602,16.2735,16.7583,19.1976,21.1376,14.1079,15.6746,15.3164,13.6021,15.5305,10.866,18.8281,28.5801,57.9171,155.732,490.527,1176.44,1899.55,1951.95,1324.52,609.66,196.822,58.1376,35.3541,37.5546,40.9938,44.2224,50.8079,45.1038,51.942,63.8909,80.4027,0,0,0,0,0,0,0,0,0,0,0,0,0,0,0,0,0,0,0,0,0,0,0,0,0,0,0,0,0,0,0,0,0,0,0,0,0,0,0,0,0,0,0,0,0,0,0,0,0,0,0,0,0,0,0,0,0,0,0
344,11.0782,8.36031,9.24874,13.7058,2.96657,-4.23008,13.0135,13.0118,10.468,5.50186,14.8823,15.1357,15.6581,5.77674,18.6236,9.05649,11.3135,16.2604,15.809,15.9237,16.6523,12.9461,14.1621,12.8951,15.8172,13.1646,12.5687,19.0895,28.8365,65.3612,169.377,536.065,1275.16,1834.81,1777.29,1132.37,483.703,142.659,46.7505,31.678,34.5563,38.0429,41.8696,43.3008,45.5922,48.4434,58.4909,82.8718,0,0,0,0,0,0,0,0,0,0,0,0,0,0,0,0,0,0,0,0,0,0,0,0,0,0,0,0,0,0,0,0,0,0,0,0,0,0,0,0,0,0,0,0,0,0,0,0,0,0,0,0,0,0,0,0,0,0
346,11.1876,12.1446,5.19701,10.6732,9.21305,0.23793,11.7371,13.3981,7.08448,3.01336,9.42103,7.67012,11.0754,9.84815,13.6936,8.65767,8.9297,11.9234,13.1585,16.7037,18.254,11.7331,12.5531,13.0495,13.0682,11.4007,11.3652,13.3787,17.3128,32.5723,73.5554,207.763,645.215,1323.87,1818.96,1566.59,927.586,364.164,98.671,35.1519,30.9466,31.9308,35.9799,41.5293,41.9977,42.3382,50.7658,57.4967,83.9473,0,0,0,0,0,0,0,0,0,0,0,0,0,0,0,0,0,0,0,0,0,0,0,0,0,0,0,0,0,0,0,0,0,0,0,0,0,0,0,0,0,0,0,0,0,0,0,0,0,0,0,0,0,0,0,0,0
348,4.37391,11.6716,1.80571,7.12308,11.3767,2.42119,4.89721,10.6965,4.33134,4.09028,6.16593,4.90036,8.13391,10.983,4.07315,8.00538,9.15099,10.6065,14.0731,19.3689,18.2498,10.6345,10.3176,12.4853,11.8446,10.0803,9.41994,9.78063,12.1329,19.7811,37.7007,89.2453,264.083,727.841,1416.21,1720.76,1380.7,731.519,266.144,63.7849,29.2769,28.3937,29.5642,39.7456,37.7272,42.6848,43.6484,44.9437,57.4845,84.6645,0,0,0,0,0,0,0,0,0,0,0,0,0,0,0,0,0,0,0,0,0,0,0,0,0,0,0,0,0,0,0,0,0,0,0,0,0,0,0,0,0,0,0,0,0,0,0,0,0,0,0,0,0,0,0,0
350,8.86134,8.4002,7.3115,4.25914,6.18472,2.74564,4.8623,7.55791,4.17269,4.99451,6.53551,8.1144,8.95141,10.5163,5.82693,9.44196,8.29135,11.9754,13.3485,14.3896,17.0524,11.943,13.3348,11.0137,12.6611,7.35675,10.9408,8.44284,10.2575,13.0983,22.0576,45.6055,103.822,318.173,846.015,1447.64,1605.35,1161.55,587.318,166.336,52.5444,26.9043,25.5818,31.0685,33.5295,39.0801,41.0616,40.63,43.4234,61.3254,84.6901,0,0,0,0,0,0,0,0,0,0,0,0,0,0,0,0,0,0,0,0,0,0,0,0,0,0,0,0,0,0,0,0,0,0,0,0,0,0,0,0,0,0,0,0,0,0,0,0,0,0,0,0,0,0,0
352,17.0217,8.29459,10.0426,3.89891,-1.29541,2.29411,7.00931,6.43821,7.60315,7.36457,10.4521,9.42703,9.48267,8.85623,12.2431,8.83907,6.59901,14.5115,9.86209,10.1841,13.7055,12.6057,15.0491,9.60846,11.2011,6.42322,9.04381,7.756,9.85583,9.18284,13.4312,22.1677,46.8827,115.786,370.737,912.093,1445.4,1452.33,1003.77,407.838,140.552,41.0683,25.195,24.883,32.5173,34.112,37.4671,41.0467,38.8218,43.772,62.4514,80.1915,0,0,0,0,0,0,0,0,0,0,0,0,0,0,0,0,0,0,0,0,0,0,0,0,0,0,0,0,0,0,0,0,0,0,0,0,0,0,0,0,0,0,0,0,0,0,0,0,0,0,0,0,0,0
354,9.91587,19.3966,14.3224,3.10796,4.5352,5.86675,6.20766,8.0773,11.3333,8.45637,5.88902,9.1228,14.1031,7.60016,13.5156,8.72269,7.35047,13.9832,9.08875,8.38529,12.2847,12.8459,15.3918,9.98555,8.80946,6.55895,7.25058,7.33472,7.87408,8.56544,9.91434,14.0279,27.6934,52.174,141.943,451.021,995.342,1403.1,1322.69,778.633,345.341,101.814,33.3193,26.174,28.4465,26.9097,31.0456,35.8685,37.5628,40.3303,48.7043,60.1556,80.6144,0,0,0,0,0,0,0,0,0,0,0,0,0,0,0,0,0,0,0,0,0,0,0,0,0,0,0,0,0,0,0,0,0,0,0,0,0,0,0,0,0,0,0,0,0,0,0,0,0,0,0,0,0
356,1.63025,12.6889,9.69055,-0.155567,7.29341,8.07275,8.14707,9.06495,7.40149,4.31637,0.8802,10.9298,14.2334,8.4945,11.1214,6.30382,7.74681,9.82993,10.3269,7.86483,8.6928,15.9365,12.7072,10.9498,10.3935,7.0992,7.07516,7.95657,6.33032,7.64417,9.00343,9.92278,16.6353,27.6495,59.134,178.11,534.102,1069.31,1382.21,1152.04,666.831,257.958,71.9075,26.5958,22.6552,22.4303,24.3907,31.8373,36.708,40.9068,39.2909,43.5323,56.8531,80.2429,0,0,0,0,0,0,0,0,0,0,0,0,0,0,0,0,0,0,0,0,0,0,0,0,0,0,0,0,0,0,0,0,0,0,0,0,0,0,0,0,0,0,0,0,0,0,0,0,0,0,0,0
358,1.38437,8.83304,11.6028,-0.873227,5.72123,2.85355,5.30732,5.50139,4.72553,3.91354,1.57162,10.5933,13.925,6.77707,7.41755,6.71903,4.15445,6.80177,9.25673,13.3853,7.69605,11.9612,10.676,12.5379,11.0159,8.71879,7.12242,8.40193,6.77402,6.51412,6.31664,9.36288,10.5384,17.7256,29.4049,72.5331,226.863,616.569,1111.89,1329.78,1029.79,541.435,192.301,51.0476,26.2081,21.3147,25.1395,30.628,35.1681,41.41,38.825,39.2874,47.4675,60.3138,79.4777,0,0,0,0,0,0,0,0,0,0,0,0,0,0,0,0,0,0,0,0,0,0,0,0,0,0,0,0,0,0,0,0,0,0,0,0,0,0,0,0,0,0,0,0,0,0,0,0,0,0,0
360,0.415403,7.99849,18.8111,7.31901,6.92573,1.37662,5.39937,3.9621,9.22459,5.5841,8.07033,10.0349,10.8507,8.55585,7.26698,5.86042,4.56722,4.33086,9.12634,12.1353,7.40693,7.92258,8.88403,11.6332,12.8281,10.6766,7.54982,7.63928,6.6686,4.1299,4.42141,8.71521,7.69224,10.3196,17.1913,35.2974,83.913,264.112,683.563,1174.75,1260.54,915.507,449.464,147.478,47.7911,22.4575,25.5672,29.3464,33.6171,36.7484,41.0452,39.9613,41.5253,42.6012,57.8155,76.9602,0,0,0,0,0,0,0,0,0,0,0,0,0,0,0,0,0,0,0,0,0,0,0,0,0,0,0,0,0,0,0,0,0,0,0,0,0,0,0,0,0,0,0,0,0,0,0,0,0,0
362,2.70927,2.52333,15.1899,10.5959,16.8729,3.27846,8.28043,4.19938,10.9455,3.55174,7.20531,11.8409,13.0487,8.75721,6.87716,6.41795,5.6798,5.06715,8.83475,6.09124,7.6456,6.53534,6.48912,9.95031,13.233,10.471,7.25279,7.57285,5.11326,4.50309,5.39355,5.22747,6.24883,7.6468,11.3376,19.266,39.658,107.262,329.505,804.014,1206.65,1188.82,792.034,352.119,122.431,36.9272,25.2159,25.2501,29.0041,30.758,37.3584,41.5901,37.4753,36.1962,45.0719,57.7304,85.8594,0,0,0,0,0,0,0,0,0,0,0,0,0,0,0,0,0,0,0,0,0,0,0,0,0,0,0,0,0,0,0,0,0,0,0,0,0,0,0,0,0,0,0,0,0,0,0,0,0
364,1.36504,3.55261,12.7469,-0.610074,9.13994,-0.559945,15.5561,5.49836,13.7676,1.46495,3.54999,9.38053,15.1607,5.49619,6.43701,6.93363,3.65852,6.52318,6.42215,5.82471,5.12178,4.96763,5.0791,8.19034,10.2995,8.31102,8.15693,8.39086,5.11072,5.86193,4.73299,3.84584,6.96649,7.00959,7.89989,11.6673,23.3212,51.3213,137.632,430.797,878.549,1204.91,1113.29,691.445,300.396,95.8826,32.1033,20.9716,25.4869,25.3048,32.7006,39.0274,37.7925,37.5133,40.0607,46.7616,61.2708,72.8497,0,0,0,0,0,0,0,0,0,0,0,0,0,0,0,0,0,0,0,0,0,0,0,0,0,0,0,0,0,0,0,0,0,0,0,0,0,0,0,0,0,0,0,0,0,0,0,0
366,-0.401424,6.64093,5.93659,0.23504,2.48036,2.77106,15.3779,6.22437,10.5657,6.99575,5.90048,9.99401,7.81975,6.49792,6.50802,6.73931,4.25992,6.61697,10.5776,6.20769,5.35338,2.62184,4.87177,7.83418,6.82841,6.47299,10.4426,9.33487,5.7103,5.46043,4.73928,4.44091,6.01907,7.41334,8.29855,8.12687,12.9998,28.5833,57.0896,188.672,501.131,952.542,1212.49,1031.49,599.752,249.059,80.6625,29.445,21.3982,23.2587,30.4037,34.4521,36.9229,38.2587,37.2809,40.6859,43.7628,58.1938,79.6674,0,0,0,0,0,0,0,0,0,0,0,0,0,0,0,0,0,0,0,0,0,0,0,0,0,0,0,0,0,0,0,0,0,0,0,0,0,0,0,0,0,0,0,0,0,0,0
368,-4.89941,5.8713,5.98923,0.768537,6.69402,10.5054,9.52453,6.36478,5.7303,8.63582,9.93569,8.8282,7.82689,4.80135,6.30665,4.21525,6.70995,7.39028,11.3548,4.89632,4.19849,4.97153,4.06067,6.60732,9.08819,7.35216,10.6778,8.92013,6.85779,4.9958,5.09539,5.6335,3.86045,5.99095,7.74197,6.33099,7.78858,16.4389,30.0805,73.9023,211.339,554.421,1011.61,1203.81,961.962,536.591,219.381,70.2221,25.5045,21.9895,26.2957,30.59,31.9249,38.5495,38.2426,38.8476,39.7473,45.909,62.9666,82.9465,0,0,0,0,0,0,0,0,0,0,0,0,0,0,0,0,0,0,0,0,0,0,0,0,0,0,0,0,0,0,0,0,0,0,0,0,0,0,0,0,0,0,0,0,0,0
370,-4.25768,11.6613,3.16898,2.10527,2.25917,5.15282,7.35315,10.0671,8.22128,5.8122,7.78932,9.6641,10.9942,4.71409,8.90849,5.41971,4.85792,9.55666,9.05069,5.89869,1.80123,4.28944,4.96177,6.28864,7.24379,7.53,8.27206,9.42749,9.33005,5.55131,3.77764,4.77745,4.41262,5.49796,4.6549,3.55534,6.93735,10.8368,16.9519,35.1982,82.3809,257.863,653.043,1082.83,1180.93,873.018,473.551,191.242,56.8915,24.4143,23.6368,27.9304,28.2944,34.6614,38.7915,38.4822,38.3364,39.0679,49.9381,63.8376,84.7229,0,0,0,0,0,0,0,0,0,0,0,0,0,0,0,0,0,0,0,0,0,0,0,0,0,0,0,0,0,0,0,0,0,0,0,0,0,0,0,0,0,0,0,0,0
372,-3.43304,11.7436,-3.25545,6.88186,3.27373,-1.59347,3.34434,5.46376,9.21872,9.54309,8.16995,4.84561,8.47168,7.36709,4.86665,7.62192,8.32949,4.96028,8.07409,4.31816,2.73925,4.63798,7.02957,5.78678,6.7729,7.60049,8.50528,9.6013,10.1562,7.55483,5.33561,3.29023,4.65628,4.37175,3.39279,4.78964,6.72816,6.93166,8.72274,21.5812,39.1383,102.26,319.44,735.972,1112.88,1148.67,826.227,439.106,164.617,55.0835,26.4317,22.5425,27.4185,29.1901,34.2658,37.7446,40.0089,35.7454,39.925,47.3938,63.074,79.5307,0,0,0,0,0,0,0,0,0,0,0,0,0,0,0,0,0,0,0,0,0,0,0,0,0,0,0,0,0,0,0,0,0,0,0,0,0,0,0,0,0,0,0,0
374,-2.95803,5.90695,0.812833,1.85138,-0.787184,-2.54906,-2.04312,1.21435,10.271,11.2479,7.14479,3.43042,6.21304,11.0477,3.38682,7.8142,6.73496,5.21274,5.02225,5.46635,5.97835,4.62281,6.24971,4.56605,7.49847,5.56152,8.8213,7.50472,8.75171,9.52112,6.50438,4.81196,4.50358,5.49682,1.81768,5.30833,6.09432,5.54419,4.91589,13.5639,22.8344,43.8305,126.272,380.037,819.258,1193.7,1143.22,775.116,394.167,141.339,44.3444,22.149,24.3766,27.1708,29.575,34.4631,38.642,37.5822,37.8212,40.317,49.009,61.8386,86.7064,0,0,0,0,0,0,0,0,0,0,0,0,0,0,0,0,0,0,0,0,0,0,0,0,0,0,0,0,0,0,0,0,0,0,0,0,0,0,0,0,0,0,0
376,-0.942371,7.41496,5.0064,-0.0813676,3.23655,-0.498457,6.19796,0.652071,10.7364,9.92789,5.56208,3.46341,3.68684,9.32934,5.27277,8.82798,6.49918,4.11802,6.25849,5.3564,8.30178,5.45698,6.65007,3.44887,7.84642,4.51063,8.19613,5.45033,8.87494,10.4925,6.17053,5.73294,4.69703,5.23218,3.21882,3.216,5.17454,6.01384,4.63744,8.97766,14.1149,27.4303,55.1516,162.799,466.628,947.35,1235.61,1098.89,732.629,332.825,115.697,40.336,24.0005,25.8526,25.6764,28.9079,36.9045,36.6798,37.5263,37.7159,40.4512,50.0973,64.3255,80.1488,0,0,0,0,0,0,0,0,0,0,0,0,0,0,0,0,0,0,0,0,0,0,0,0,0,0,0,0,0,0,0,0,0,0,0,0,0,0,0,0,0,0
378,1.14501,7.4755,10.2812,4.70351,7.50089,-2.66547,6.92427,3.00757,17.2799,9.6658,6.75055,5.63932,5.59018,9.52999,5.77984,7.85222,5.82516,4.01149,4.67347,5.81482,6.13151,5.1698,6.4954,4.18127,7.09073,4.5213,6.81857,3.88248,8.6057,10.3569,7.08597,6.50555,4.84973,5.72111,5.26186,3.34741,3.90074,5.05688,4.56174,6.47844,8.93474,19.125,31.5028,65.8985,200.911,558.776,1018.04,1255.95,1098.15,667.329,308.325,109.811,35.3298,25.0581,24.6456,26.1223,31.5821,34.2576,35.8828,37.6056,37.9255,40.5514,48.095,61.1075,82.5815,0,0,0,0,0,0,0,0,0,0,0,0,0,0,0,0,0,0,0,0,0,0,0,0,0,0,0,0,0,0,0,0,0,0,0,0,0,0,0,0,0
380,5.36557,6.91803,17.7984,8.99382,6.66724,-4.28008,6.11811,3.84877,15.0103,6.84133,8.77494,8.38631,9.96843,10.6164,8.28183,5.6086,6.62941,5.20682,1.78426,5.42485,3.03871,6.10372,6.13841,5.99958,5.22052,4.36754,6.71717,5.23211,9.03042,9.13074,7.81694,7.51118,5.56934,5.15742,4.27203,4.43336,4.69195,3.87429,5.06022,5.6666,6.9837,11.9115,18.6905,33.6831,79.3469,258.73,650.693,1119.41,1307.99,1041.91,609.013,258.051,82.6898,31.8662,23.5026,22.8807,26.6418,28.5482,34.1778,38.6031,38.4298,38.5075,36.8249,47.8385,63.1672,80.9225,0,0,0,0,0,0,0,0,0,0,0,0,0,0,0,0,0,0,0,0,0,0,0,0,0,0,0,0,0,0,0,0,0,0,0,0,0,0,0,0
382,2.97916,9.45002,10.0188,5.48365,8.32375,0.576501,1.70671,3.94631,7.03219,7.7706,6.81185,5.98955,10.3405,12.3839,12.6966,7.56795,8.70331,6.87144,5.13851,6.0994,2.40005,6.85522,5.4795,5.799,6.02421,5.45679,7.24123,6.23433,6.74486,7.87742,7.45601,8.26541,7.43201,6.28194,4.42253,2.68221,5.68887,3.18745,3.49907,4.43699,5.13378,7.80605,13.9399,20.1522,42.0668,109.954,324.03,769.44,1221.59,1311.68,981.356,543.438,218.684,69.2011,25.8686,21.6061,23.1442,24.4681,29.8619,34.2146,38.8029,41.8422,35.2864,40.9216,49.5816,61.6741,76.5884,0,0,0,0,0,0,0,0,0,0,0,0,0,0,0,0,0,0,0,0,0,0,0,0,0,0,0,0,0,0,0,0,0,0,0,0,0,0,0
384,-7.73727,5.89491,5.9069,4.8989,5.27786,0.531226,3.90446,0.367562,6.97554,5.49037,10.6389,6.43396,8.60954,7.59217,13.5493,6.0408,6.81146,8.48797,5.79669,5.00922,4.88403,7.09628,5.89702,2.91359,7.13299,7.24261,7.42922,5.42253,5.09118,4.96824,5.25083,8.01989,8.82414,6.97458,6.2928,2.29084,5.57041,3.18305,3.76326,4.59177,4.55842,7.95035,8.19321,12.624,25.556,49.445,130.987,407.83,882.309,1300.99,1310.03,936.427,489.72,188.802,56.5221,25.7474,22.5412,24.6438,27.9137,28.6117,36.5809,40.9041,36.7365,37.6951,40.7515,49.0589,59.998,79.4692,0,0,0,0,0,0,0,0,0,0,0,0,0,0,0,0,0,0,0,0,0,0,0,0,0,0,0,0,0,0,0,0,0,0,0,0,0,0
386,-8.45063,-1.21155,1.86288,8.20599,-4.61919,-0.785361,8.22581,1.8186,7.61409,8.61585,9.2057,4.33426,6.70012,4.45593,6.68094,4.34877,4.10714,7.11639,4.88561,5.10239,6.10088,4.83753,4.60685,2.01315,6.90491,6.7743,6.25292,5.62785,4.16784,5.3624,6.08299,8.37458,9.32329,7.29071,6.45518,2.79354,4.61034,3.60902,3.23145,3.67223,4.58274,7.60019,4.59281,8.9967,14.2428,29.5983,57.5385,169.67,497.334,1006.32,1377.32,1285.08,849.459,421.73,143.184,43.1568,21.4376,23.6043,28.5538,27.1885,32.202,37.0194,39.1707,38.444,35.4345,38.7638,47.1137,60.5461,80.7241,0,0,0,0,0,0,0,0,0,0,0,0,0,0,0,0,0,0,0,0,0,0,0,0,0,0,0,0,0,0,0,0,0,0,0,0,0
388,-4.6964,-2.79276,3.89505,3.86388,3.24341,3.1233,9.78864,5.63522,7.15552,10.2109,7.40242,5.60662,6.2629,2.41875,5.97236,3.50035,5.49769,6.4983,5.72686,5.73855,6.54031,5.57891,5.24624,4.96115,6.21785,5.58255,6.1333,6.32362,5.89122,6.35401,5.99599,9.18815,8.37543,8.80788,5.08349,4.88721,3.59059,3.10183,2.74993,2.82764,4.21646,6.19331,3.70024,7.07816,7.90793,19.2452,34.5735,71.3627,226.362,605.028,1148.74,1417.02,1218.78,767.879,332.917,108.513,35.8228,21.3669,26.352,23.9487,29.5257,32.635,35.9877,39.5725,37.2938,34.1249,36.5075,46.3399,60.2289,75.0246,0,0,0,0,0,0,0,0,0,0,0,0,0,0,0,0,0,0,0,0,0,0,0,0,0,0,0,0,0,0,0,0,0,0,0,0
390,-5.03167,6.64453,11.1575,-0.330507,10.4774,4.53609,11.9318,5.02021,6.86436,5.41693,7.05852,7.60846,9.20731,5.81624,5.29898,6.77147,6.29057,7.82498,5.36836,3.55942,7.01252,6.18897,6.27089,7.39921,8.55537,7.47419,7.25465,6.44212,5.68075,6.53097,4.86431,8.32895,5.97216,8.67969,6.14601,7.54964,4.16466,3.85972,3.15229,2.01048,3.49315,3.75123,2.96842,4.83416,4.35473,11.633,18.2634,38.1983,91.5036,278.46,723.898,1237.61,1426.65,1182.95,679.205,276.834,91.625,28.9678,22.5729,21.9547,26.9417,27.4355,31.6392,38.8701,42.4592,35.0704,32.8524,39.2272,45.1855,60.873,73.3833,0,0,0,0,0,0,0,0,0,0,0,0,0,0,0,0,0,0,0,0,0,0,0,0,0,0,0,0,0,0,0,0,0,0,0
392,-1.12499,9.33834,9.14898,2.23108,10.1143,2.20145,5.85085,3.51262,3.6461,4.52849,8.80828,6.26139,7.90516,11.319,5.75087,9.69134,7.59159,10.7204,7.45609,5.22147,7.41435,6.3335,7.66391,7.67837,9.42723,8.45913,6.77251,6.86879,5.0196,6.90806,6.52015,6.71313,5.33014,7.93824,7.92725,8.085,5.26135,3.95957,2.03391,1.77049,3.6025,1.84315,3.1517,5.10347,4.78779,6.80762,11.737,24.6871,45.8753,120.765,363.589,848.047,1307.63,1416.39,1077.14,565.834,226.268,68.9357,27.2549,20.5878,23.5549,25.2309,28.6438,34.9252,40.2786,36.9877,33.8586,34.2884,36.8476,47.7317,56.5037,71.0329,0,0,0,0,0,0,0,0,0,0,0,0,0,0,0,0,0,0,0,0,0,0,0,0,0,0,0,0,0,0,0,0,0,0
394,-3.90456,6.21119,8.50938,5.80298,4.17214,1.38322,6.06539,3.87094,0.676322,4.31459,7.61171,7.72702,5.86992,11.291,6.91209,4.61009,8.44922,11.2503,7.74642,6.81426,7.70842,5.13976,7.78718,9.31345,8.52288,6.5965,7.22203,5.24667,5.46259,6.28279,7.14379,6.28377,6.48376,5.85147,7.35661,9.07055,5.50273,4.75875,3.30235,1.65169,3.75029,2.20737,4.46602,3.60481,4.56054,4.9841,8.34164,14.9286,28.6829,56.9697,158.141,453.239,952.47,1379.49,1399.04,957.321,489.586,184.928,53.3182,23.8908,20.0277,23.8881,25.2507,29.5108,34.6489,39.0798,37.4189,31.8623,31.502,37.6063,46.6031,54.7472,68.8011,0,0,0,0,0,0,0,0,0,0,0,0,0,0,0,0,0,0,0,0,0,0,0,0,0,0,0,0,0,0,0,0,0
396,-7.11604,3.1719,9.6962,4.23492,-0.449265,0.324024,5.65186,1.88287,6.79974,7.5564,4.37893,10.1067,3.30536,7.53435,5.27353,1.46294,9.68577,6.94272,9.50127,6.61292,10.7512,4.52508,4.97488,9.72518,6.46178,6.32199,9.17134,5.94409,5.73178,5.55584,4.65535,5.32218,6.63445,4.80128,6.54074,8.07423,5.76557,5.77646,4.42854,2.80144,3.51715,3.92024,3.97627,3.39566,3.77769,3.62763,4.88126,8.93865,18.9123,31.2801,66.7427,189.725,538.079,1071.45,1455.81,1328.78,874.228,425.095,138.884,46.7981,21.3387,21.2588,22.9373,27.8499,28.4587,35.4758,38.8244,35.051,29.9096,30.9697,36.9273,42.0231,55.5174,69.0719,0,0,0,0,0,0,0,0,0,0,0,0,0,0,0,0,0,0,0,0,0,0,0,0,0,0,0,0,0,0,0,0
398,-3.03037,1.95919,7.64204,2.75724,10.5544,4.77406,5.8966,-0.0457391,8.81895,8.47242,7.99902,8.52328,4.48657,7.24517,4.82123,4.07316,8.70741,7.85594,12.1076,3.52637,8.66354,5.35761,5.01139,7.78678,3.99163,7.54296,9.08368,6.55019,5.68169,7.39478,5.06487,4.37522,6.68954,5.55244,4.70185,7.3143,5.82513,6.61479,4.68991,3.71187,2.83546,3.86384,2.44268,2.74498,2.68851,4.03715,4.83572,7.24483,11.0122,18.2388,38.6024,75.0658,247.259,638.698,1181.33,1466.72,1263.36,805.966,345.925,122.434,37.5998,20.9344,21.0576,24.9864,25.0343,27.4368,33.1063,35.7223,31.4827,31.6346,31.0889,33.8193,42.9647,54.2625,66.8018,0,0,0,0,0,0,0,0,0,0,0,0,0,0,0,0,0,0,0,0,0,0,0,0,0,0,0,0,0,0,0
400,6.48722,3.4213,7.69076,1.74685,7.6566,8.31194,4.45732,0.350247,7.05542,9.11879,9.95483,7.07118,4.67766,9.61216,5.58435,4.15654,12.4303,4.84493,10.7786,3.0143,7.30572,7.95262,6.06023,6.19466,5.8734,9.26793,7.52454,7.45002,6.59531,7.91777,5.31804,5.0709,5.72704,5.03845,2.80278,6.19767,7.09248,8.33842,4.86214,3.94021,3.21261,2.79049,2.90651,1.92532,1.94506,4.49837,3.3944,6.64436,7.46543,12.1993,24.811,39.2601,97.5377,297.358,767.32,1292.59,1477.38,1199.44,673.449,284.989,89.762,28.6549,18.7534,22.4202,23.2344,24.2955,27.6145,32.3343,33.9059,34.7396,29.1647,30.0828,33.9125,44.3677,51.5614,64.0995,0,0,0,0,0,0,0,0,0,0,0,0,0,0,0,0,0,0,0,0,0,0,0,0,0,0,0,0,0,0
402,11.8408,7.1091,10.9346,3.16534,1.5697,7.26231,-0.602135,5.01404,3.95967,9.73663,4.38222,4.62107,6.08311,12.0834,5.32731,3.89529,10.832,3.7761,8.45215,3.21763,6.21106,8.6186,7.36986,5.33586,9.0883,6.25174,5.94484,6.76298,5.7941,6.78872,5.58002,6.52886,5.30672,5.18363,3.85444,6.49256,7.73326,7.22511,4.72762,4.93586,2.99475,3.17044,3.89862,1.51641,2.32432,3.52491,1.92817,5.76066,6.30581,8.53907,15.9053,28.0639,52.9562,127.689,410.02,914.075,1397.31,1445.37,1043.02,575.689,230.32,66.8428,23.7697,20.7068,22.8536,23.9568,23.2209,28.3718,31.7466,34.6408,31.1984,30.0214,28.9806,34.1227,39.5041,51.6442,63.3181,0,0,0,0,0,0,0,0,0,0,0,0,0,0,0,0,0,0,0,0,0,0,0,0,0,0,0,0,0
404,3.88745,7.3963,15.2886,2.54299,5.85172,8.19111,-1.09272,4.18761,0.984301,9.04669,5.797,1.61034,6.13627,11.2748,6.48434,6.18913,7.64177,2.25714,4.03418,4.15576,5.3072,6.90279,7.90783,3.99997,6.61749,4.50368,7.21547,8.7668,5.00276,6.05676,6.05478,5.52184,5.85372,4.70054,5.06046,6.40409,6.05189,6.09409,5.07217,5.88894,2.22994,3.16898,2.89969,1.27073,1.78742,2.53425,1.5166,3.28484,4.93182,5.53564,10.2944,17.9001,33.6576,58.2305,164.188,495.925,1037.54,1422.14,1362.58,968.651,503.475,182.39,52.7914,23.0565,19.0505,23.5425,22.6413,24.2691,27.5379,32.2472,36.3743,32.5309,28.8151,27.2642,32.6686,39.538,49.9278,65.1329,0,0,0,0,0,0,0,0,0,0,0,0,0,0,0,0,0,0,0,0,0,0,0,0,0,0,0,0
406,2.01605,2.11006,5.13239,0.543269,6.14437,5.71473,-3.08073,5.77734,0.245335,9.01991,8.23299,3.96336,9.61326,11.5082,6.42546,1.84403,5.38323,3.28763,3.04034,5.21391,8.88594,6.63417,7.54826,6.17121,5.09614,4.67673,6.77693,9.43245,5.43822,7.1238,6.08127,5.03056,5.99007,4.90255,3.86311,4.31612,6.4019,4.98292,5.86441,6.29677,3.68786,3.41657,1.67794,1.84907,2.41374,1.22892,1.73466,3.20689,4.66351,3.35,7.50145,10.701,20.5216,33.7023,71.4842,220.987,632.031,1133.63,1461.3,1298.64,859.5,405.082,140.577,43.7997,19.4744,18.8381,22.8242,20.7206,24.2342,29.4936,37.4742,39.2467,32.7338,27.4463,28.507,31.771,40.9592,51.8138,61.3721,0,0,0,0,0,0,0,0,0,0,0,0,0,0,0,0,0,0,0,0,0,0,0,0,0,0,0
408,-1.25058,-3.60806,6.51394,4.07987,1.05526,10.745,4.55422,11.5984,4.66762,10.5052,6.37539,4.85722,9.24349,13.8304,9.63114,3.20992,5.04125,3.10851,5.52034,4.82907,11.3506,5.91056,6.86877,7.62403,6.27333,6.23358,4.85256,6.65197,6.6497,8.29427,6.4289,4.94929,6.18924,4.21163,3.59452,3.40624,5.28649,4.3283,5.29375,5.96493,5.88498,3.47551,3.90124,3.07724,1.99104,0.577663,2.04703,3.59889,5.5414,3.66742,5.92192,6.48618,13.5417,22.5378,38.2647,90.3061,294.586,694.609,1243.25,1458.09,1225.66,764.614,337.249,114.088,33.4167,18.7159,22.6955,18.3589,21.6088,25.8145,32.0738,42.6186,40.7214,32.3866,27.1817,26.2619,31.7656,39.8978,49.3864,58.577,0,0,0,0,0,0,0,0,0,0,0,0,0,0,0,0,0,0,0,0,0,0,0,0,0,0
410,3.48297,5.23411,4.08192,8.68729,3.77743,10.9607,10.8059,12.8914,5.85551,5.31632,9.04432,9.30289,6.18624,11.3416,13.0216,5.56366,5.00813,1.88014,7.58276,4.51239,10.783,5.86093,5.43454,6.36247,7.74264,7.73677,6.87194,6.09553,6.77044,9.7246,5.56633,6.43932,6.05857,4.9091,2.93407,4.10535,3.55273,4.96847,4.44306,4.85591,6.14226,3.98891,4.54577,2.67905,1.26994,1.21262,1.60767,2.61119,5.12975,3.59136,6.08621,5.25192,8.33962,14.2564,24.5161,46.3144,122.02,351.177,854.216,1330.92,1425.52,1124.53,632.648,266.036,78.4198,25.7497,17.6362,17.1005,19.3788,22.1719,25.3601,37.3374,43.0336,42.6184,30.903,25.6469,25.7381,30.708,39.2893,43.9645,54.3322,0,0,0,0,0,0,0,0,0,0,0,0,0,0,0,0,0,0,0,0,0,0,0,0,0
412,-4.96005,8.38041,-3.50372,12.7068,4.06136,3.17756,7.79927,2.77289,5.37315,4.99732,10.5965,8.46185,6.64829,5.58575,9.56255,2.94084,4.35762,3.01766,4.91433,5.7136,4.51884,7.58673,5.41109,6.50763,7.71258,6.64917,6.08829,5.18715,6.8967,7.2043,5.4297,7.67775,6.75306,4.19014,3.58115,5.87367,5.54344,5.31055,5.72292,3.88103,6.20737,3.75125,4.1535,2.94178,1.35611,1.20956,1.65558,0.86558,4.33486,4.65998,4.49364,2.84922,4.21732,9.43442,15.9683,29.0229,54.1278,143.741,455.244,951.606,1359.64,1385.08,1016.1,545.537,205.306,60.9224,21.2815,13.2694,15.9548,20.1331,20.4239,27.9513,39.1334,46.9811,40.4932,29.8932,24.9576,24.8184,29.6319,36.3638,43.1973,54.8298,0,0,0,0,0,0,0,0,0,0,0,0,0,0,0,0,0,0,0,0,0,0,0,0
414,-7.47936,3.98359,-0.586097,7.10214,3.55709,5.93253,8.76822,3.78504,4.43875,6.38447,7.48534,5.33211,4.95069,5.45563,6.98925,4.2406,5.21891,4.41447,5.28945,3.82917,4.37962,5.74159,5.75908,5.11827,7.17855,5.79014,5.79911,5.08618,7.99278,6.74311,5.22291,6.40924,7.87167,3.13998,3.89706,5.04335,4.91812,4.97266,5.48688,3.74029,6.64506,3.7859,4.13977,2.8883,1.83301,1.77496,1.68086,0.997435,3.28504,4.58501,4.04449,2.58404,3.69568,7.23053,10.5999,18.6341,35.0945,65.3254,202.026,548.592,1067,1383.1,1307.9,883.081,425.903,147.856,46.7836,15.1255,15.1693,17.8915,20.4784,22.3039,31.6716,43.6649,50.5114,39.2208,32.1144,23.6474,24.115,29.8146,36.1375,45.533,55.2295,0,0,0,0,0,0,0,0,0,0,0,0,0,0,0,0,0,0,0,0,0,0,0
416,1.14626,1.54288,-1.84252,3.3582,1.77945,7.41447,10.2415,8.72429,1.22062,2.88545,4.73868,3.65866,4.91256,8.07461,4.85737,7.0203,6.76731,4.6867,3.69314,2.36105,7.74751,4.97359,4.77207,5.10162,8.61693,7.34939,6.6694,4.93522,6.44683,5.85237,6.04985,6.48559,7.50154,3.90931,3.18579,3.69088,3.29779,5.32778,4.84351,3.19695,6.08683,4.03632,5.31629,2.39463,2.89745,2.14928,2.52899,1.4707,3.43224,2.30832,4.01052,2.89079,3.59262,4.38114,8.84681,10.3284,24.2932,36.5434,82.1921,242.743,643.543,1130.36,1404.74,1220.52,762.217,340.982,121.255,33.6568,16.4512,15.3133,17.9706,19.4091,24.0255,34.2167,51.3978,50.2547,44.0218,28.3773,22.8004,25.0718,29.5052,35.9948,44.946,50.1833,0,0,0,0,0,0,0,0,0,0,0,0,0,0,0,0,0,0,0,0,0,0
418,7.42233,3.37314,-2.759,3.58205,2.47028,5.4105,10.8521,10.9277,2.9046,3.61045,4.38541,1.76261,3.41068,12.2138,5.01295,7.32963,4.43176,4.0629,3.3141,3.38149,7.07288,8.59295,4.54272,5.16311,7.99564,8.28554,6.50917,6.39484,5.47324,5.08346,6.669,6.43513,7.07959,3.93829,3.00476,3.20599,3.1162,4.70121,4.46149,3.42391,4.2134,3.84347,4.57304,2.88465,2.6306,3.03665,1.61983,0.87795,2.58975,2.91714,3.42304,2.15668,2.89076,3.50638,6.69253,7.02976,15.0131,26.7827,45.1997,104.451,324.585,757.246,1214.3,1367.82,1090.64,637.546,277.809,86.0371,27.4859,15.2681,15.306,17.7237,20.1498,26.7245,40.6994,51.7712,58.0628,41.6346,27.8988,24.2319,24.6118,27.986,34.6161,41.1871,49.4074,0,0,0,0,0,0,0,0,0,0,0,0,0,0,0,0,0,0,0,0,0
420,7.04964,7.14045,-3.68823,7.79116,5.15446,5.91334,5.87343,6.64786,8.26663,6.43254,5.54561,3.71736,6.06154,11.0353,8.62056,7.83802,3.7533,4.70707,4.43694,5.35827,5.67499,10.5899,7.31448,5.85824,6.71674,8.62774,7.27902,6.44351,4.38877,5.13401,5.74635,5.47963,4.47522,2.64766,3.51579,4.24688,2.68021,3.19033,3.66885,3.84091,3.79779,3.6784,4.14523,4.3308,3.25699,2.60023,1.74355,1.76243,2.06729,3.13227,2.84934,2.02885,2.36926,3.84381,6.57637,5.23159,9.58931,18.0509,31.0584,46.9682,133.765,397.836,851.592,1260.91,1304.77,971.119,539.554,207.799,67.0311,23.0591,14.0626,14.2709,17.6868,20.5909,28.083,43.0203,61.5566,53.9398,38.6565,27.0229,23.989,22.6476,26.7395,32.9728,41.275,49.3892,0,0,0,0,0,0,0,0,0,0,0,0,0,0,0,0,0,0,0,0
422,-2.03477,11.9828,-7.55898,15.276,5.60174,5.68411,11.6238,3.4889,8.40256,2.83704,7.35843,3.9553,10.3778,8.50186,7.93224,5.14151,5.479,4.72109,5.79993,5.17741,5.46181,6.19766,8.70883,7.85812,5.37579,6.36265,7.92219,5.98629,4.8906,6.5121,6.66063,6.92193,5.10883,3.66542,3.12417,3.83994,3.54511,2.57489,2.37699,3.86406,4.15306,3.97379,4.67903,4.62927,3.25045,2.43845,2.06194,1.56379,2.98956,1.82619,1.87462,2.5056,2.85077,3.02529,4.97634,4.31877,6.6211,9.82484,21.1996,31.0662,60.0675,176.015,479.718,948.611,1302.32,1223.45,852.018,421.621,167.953,50.8767,17.5882,13.7215,16.8456,17.0674,21.5644,29.8803,49.942,59.7574,53.0643,38.3341,28.7363,21.0639,21.7748,27.0948,34.2562,40.3112,47.9256,0,0,0,0,0,0,0,0,0,0,0,0,0,0,0,0,0,0,0
424,-7.96141,17.1098,-7.86088,12.8742,6.81374,3.65513,14.8544,1.89816,9.07071,3.49986,8.20442,2.83086,7.33047,6.82978,7.86455,7.647,4.41181,5.41498,6.22804,5.24868,4.41717,3.66844,5.70411,6.2123,6.74032,4.80073,6.25597,5.7843,6.16789,5.6052,6.23619,7.84042,7.33903,4.23433,3.63241,2.34307,3.7553,2.36287,2.74281,3.27211,3.49706,3.25385,4.42166,4.1951,4.69553,2.88335,3.08072,1.78875,2.06075,1.12443,2.42228,2.33798,2.9347,2.76626,2.95215,3.9935,4.2243,7.43842,14.0426,21.1376,34.9442,67.3516,219.126,568.429,1068.29,1294.15,1141.8,715.431,347.387,123.962,31.4441,15.3299,13.4946,13.7761,16.6427,20.2181,30.7589,53.7756,62.5731,56.7048,40.3212,23.8259,19.7052,22.04,26.5609,31.1069,39.4864,45.2025,0,0,0,0,0,0,0,0,0,0,0,0,0,0,0,0,0,0
426,-5.42621,8.05712,-2.23888,9.78339,6.7166,4.02973,7.26541,1.20484,8.19606,5.92558,9.32266,3.25432,5.09773,7.53518,9.43486,5.54833,5.77542,8.46291,3.11757,6.11459,4.11979,3.02727,4.19197,6.07168,7.89657,7.41941,4.9015,5.23059,5.79517,4.18007,5.50655,5.70672,6.22017,4.73233,3.91499,3.65017,3.30562,2.97302,3.67597,1.92565,3.54821,1.67501,3.6488,3.44464,3.90804,3.56102,3.65082,2.18477,2.11306,1.9051,2.42551,2.54878,2.99353,2.437,2.76453,3.4014,2.35226,6.70148,8.94902,12.68,23.3257,39.7444,94.6248,274.859,689.252,1116.28,1247.61,1006.5,613.81,274.768,82.6499,27.7797,13.0629,10.0184,14.3555,17.232,19.8863,37.7337,56.3311,65.7743,57.1287,33.4701,23.4439,21.2292,20.5857,24.6121,32.4536,37.9014,44.2275,0,0,0,0,0,0,0,0,0,0,0,0,0,0,0,0,0
428,1.6953,4.97612,5.74436,10.4835,2.43092,7.23384,11.0259,0.1542,4.1591,1.74212,5.4342,4.3683,3.90825,6.78126,4.22639,3.45308,6.33662,7.56006,2.74764,2.69601,5.85647,4.38121,5.0777,6.42472,7.57273,6.61867,5.22237,5.26513,4.86012,5.04096,4.97973,2.42494,5.63686,5.28549,3.15494,4.44721,3.97078,3.98672,3.92545,3.02882,2.71153,0.700529,3.44188,3.33081,3.42446,3.97875,4.2252,2.48175,2.06543,2.50753,1.89399,2.60967,2.38869,1.73494,3.27006,3.69915,2.67441,5.35703,5.28136,6.87436,15.5391,26.7649,46.2668,116.399,356.233,795.684,1145.05,1180.22,905.968,505.846,189.642,64.4472,19.2781,10.0167,11.6684,14.0056,15.8027,23.5304,38.5756,62.3056,67.5903,50.2042,32.267,23.7638,16.662,20.7803,26.2164,31.0053,35.6366,46.023,0,0,0,0,0,0,0,0,0,0,0,0,0,0,0,0
430,1.97036,4.00957,7.33808,6.35407,2.1606,4.53134,14.7902,-0.349647,6.17617,-2.10817,4.87636,5.77085,5.52637,4.83225,1.09605,5.49803,5.31044,5.109,5.5562,3.76901,9.068,6.61248,4.18711,5.75559,7.86407,5.11284,8.94225,5.94916,5.68585,6.22785,4.22428,3.16181,5.13776,4.34984,3.59951,4.53441,3.32561,3.63574,3.10412,3.44031,2.63604,1.45507,2.5422,2.56508,2.91696,3.69832,3.57259,3.15316,2.23184,1.71969,1.61633,2.24567,3.07836,1.93452,2.95771,4.65864,2.8494,3.54782,4.58244,5.1249,10.5439,17.7616,30.2742,54.2212,154.002,445.598,847.711,1147.88,1111.11,791.258,381.491,158.861,50.4309,15.25,9.98072,11.5259,14.3091,17.2969,23.1077,45.5629,62.2096,64.5696,51.2628,31.7102,17.3801,18.1066,19.9346,24.9605,29.2679,37.2065,43.027,0,0,0,0,0,0,0,0,0,0,0,0,0,0,0
432,-2.91725,7.82338,6.34207,3.49862,0.663876,1.85223,11.5418,0.984042,9.68279,1.3007,7.6037,3.59941,6.21348,4.73393,2.58585,6.50039,6.61719,5.2897,3.68677,6.79914,9.47981,7.37835,4.51917,7.3311,6.5458,3.76995,10.3771,5.7721,5.6794,6.13963,5.77607,5.31862,6.58295,3.37433,4.48967,3.7814,3.40767,2.80553,2.49805,2.63576,2.25881,2.38349,2.31082,2.18833,2.38545,3.71925,2.91345,3.27586,3.35595,2.69633,1.68326,2.07637,2.45576,2.30729,2.3876,4.30962,2.40455,3.30565,4.10321,4.53374,7.34405,11.795,22.2794,33.8128,68.9636,198.559,508.421,925.161,1142.43,1016.42,630.217,319.231,114.952,31.8531,12.1685,10.3182,12.7114,13.4553,16.5742,28.7302,43.3623,64.7811,68.4652,48.7777,25.8523,18.1953,16.7028,20.6512,22.843,29.6439,34.4595,41.5953,0,0,0,0,0,0,0,0,0,0,0,0,0,0
434,-8.53309,11.3016,5.39781,-3.00683,-1.78047,2.28085,4.95316,1.74639,10.7745,0.795405,11.4566,5.20819,4.64507,6.78012,7.34908,4.56368,8.72143,3.72503,5.8254,8.13286,4.55449,4.00377,6.00717,6.27811,5.10995,3.9349,7.13281,5.87689,5.04048,4.44241,6.3981,6.0984,7.0027,2.48553,4.34024,2.54059,2.65433,3.90038,3.35904,2.41192,1.49943,2.21843,1.13558,2.3859,3.42262,4.04549,3.44136,3.48558,3.57666,3.02527,2.06418,1.96899,0.463434,2.56919,2.09715,4.3097,2.50075,3.29706,2.5638,3.25761,6.37154,7.02022,14.1728,25.3032,36.462,84.406,246.065,602.896,965.09,1107.88,881.437,562.024,248.652,81.5271,25.6919,11.0736,10.5236,11.127,12.8533,19.3547,27.1436,50.8593,68.5616,67.7563,41.4759,26.0046,17.7883,17.6823,18.4591,23.0394,27.4339,30.3486,39.8443,0,0,0,0,0,0,0,0,0,0,0,0,0
436,-5.79101,3.83522,0.790829,-3.70916,1.75911,5.16476,10.4156,3.88046,10.4529,-1.0571,7.5425,1.83935,7.18159,10.1425,9.04835,3.90104,4.77296,4.60383,7.01581,6.97177,3.99013,3.9867,6.5127,5.00893,6.6369,5.49606,4.92649,3.3081,3.81751,4.08331,4.31583,6.06537,5.89322,2.39093,3.19196,3.33143,2.60853,4.22472,3.40466,1.81539,1.43564,1.14115,1.6422,1.9223,3.39632,2.59824,4.64842,3.41681,3.10948,4.50751,2.22032,2.24708,0.71398,1.76042,1.62109,4.14191,2.21033,2.69166,2.38879,3.44627,4.84203,4.15668,8.49039,16.5539,25.6962,44.5905,103.49,314.301,662.175,990.435,1030.04,802.421,457.751,191.036,62.4136,19.3358,10.4558,9.69722,10.587,14.6715,17.4298,31.0289,52.081,71.9162,62.076,41.2717,24.5275,18.0832,15.6685,18.4603,20.2463,25.322,33.1505,36.9578,0,0,0,0,0,0,0,0,0,0,0,0
438,4.75768,-0.615499,3.95722,7.51869,5.57049,4.77313,11.657,3.67159,6.65146,-0.0215061,5.96232,3.51736,7.99319,14.5133,6.8499,7.99884,4.76059,7.79072,3.59575,5.62882,4.06078,4.12945,6.05819,5.70334,8.93908,5.76987,3.18022,3.16262,4.78733,4.73191,4.56601,4.28132,4.66737,2.03604,2.12502,3.41393,3.07114,2.83283,3.82498,1.61703,1.07817,1.67421,1.89059,1.26145,1.75289,1.34071,3.07661,2.34151,3.26662,4.51237,2.45384,2.78067,1.57926,1.21476,1.84865,4.45238,1.32373,2.65149,3.12616,3.67598,3.91654,3.21267,5.66851,10.9637,19.4495,27.7526,49.4877,131.588,373.524,722.565,1011.91,969.891,685.009,358.113,140.394,41.3055,16.8863,9.85436,8.56423,11.5257,13.025,18.3449,32.8251,59.3403,72.0153,60.3317,37.904,21.4509,15.5577,15.8174,16.7317,20.8819,27.1579,30.0311,37.8727,0,0,0,0,0,0,0,0,0,0,0
440,11.9622,2.14836,3.71156,15.8113,11.745,-1.16935,10.7517,3.09695,2.87442,-1.74047,5.70504,4.91362,8.32852,6.2129,4.28541,6.10728,3.96147,7.99871,2.00178,4.7359,3.4579,4.98081,5.65624,5.31733,7.80753,4.47188,2.39441,3.07372,4.93189,5.67335,5.66496,2.23277,2.26104,2.82743,3.01951,3.01393,3.35543,3.46577,3.2206,1.78908,1.66486,2.79883,1.31416,1.69703,0.995924,1.67794,2.6855,1.11192,2.54393,3.55735,2.63423,2.8533,2.39819,1.70391,2.19109,3.46803,1.90601,2.8324,2.8998,2.66991,3.75421,3.06074,4.52505,6.88579,11.4714,17.2423,30.2046,55.1751,164.868,418.803,811.868,981.801,875.279,591.332,292.838,107.295,35.6725,12.1871,7.08312,9.84896,11.3543,13.2223,18.6832,39.1599,59.9171,71.9806,57.3036,33.5015,20.3466,14.7921,14.942,16.9071,21.6441,24.7796,29.4464,35.7931,0,0,0,0,0,0,0,0,0,0
442,2.6787,3.6047,-0.80953,12.1488,7.4749,-0.41769,15.0777,2.96958,3.47969,0.839896,6.73514,4.76136,5.90485,4.08821,5.50625,1.77358,5.81208,7.7186,3.35799,3.5072,4.12014,7.69059,5.68114,5.78189,6.43009,3.68942,3.36213,4.04478,5.23141,4.98683,5.05583,1.46022,2.63277,4.38381,2.89988,2.1693,1.65436,4.50188,1.53683,2.20892,2.35984,2.76737,1.18757,2.07405,0.196174,2.35007,1.89818,1.15879,2.35351,2.72028,2.54297,2.43812,3.13354,2.30696,2.78293,2.58086,2.56021,2.43238,1.48925,2.03404,3.36397,3.80016,3.2376,4.87333,7.17181,11.833,20.9252,30.6938,69.0074,206.039,530.645,818.017,935.501,790.707,500.962,230.685,84.057,24.2468,9.3115,9.27439,9.44626,10.9511,12.8676,22.6411,39.3401,63.7838,69.9583,53.3459,34.256,18.6641,14.8942,14.887,16.8907,21.6907,25.4674,27.8437,34.6547,0,0,0,0,0,0,0,0,0
444,-2.02399,1.23018,7.68941,4.11331,4.91708,1.71268,13.6088,1.7388,8.46318,1.59186,7.61419,1.618,4.17522,5.78213,8.41884,2.43489,5.56136,8.71411,2.81039,5.43205,4.9564,8.86171,4.45061,8.02044,5.76641,3.52813,3.99038,5.49817,5.09504,4.14968,5.12533,2.07503,3.38553,4.52532,1.61965,2.36928,2.48846,4.32907,1.28094,1.35771,2.3665,1.66196,1.098,1.69794,1.19157,2.67041,1.42837,1.54491,1.97617,2.33814,3.21312,1.93239,4.47949,2.17455,2.59056,2.50202,2.58537,2.17607,1.85188,2.06612,3.2182,3.21914,3.5633,3.24932,4.82593,7.70443,13.6737,24.0135,34.8601,86.926,279.095,566.985,845.495,898.641,698.894,403.09,175.873,56.9126,16.8398,8.77721,7.77789,8.63529,10.8841,14.5462,21.3507,42.9813,64.477,68.4837,52.7492,29.1808,17.5115,13.4214,14.5702,18.0169,20.6603,23.3624,28.4713,32.9255,0,0,0,0,0,0,0,0
446,3.79538,1.52492,10.9881,0.39791,3.56417,-2.35377,16.213,2.20011,9.3483,2.93806,4.19218,1.77503,8.15634,3.38857,6.30503,2.41239,2.56558,5.7667,2.54226,3.30323,7.39286,5.45609,0.350346,8.75295,5.28923,5.8403,4.15199,3.81632,5.31376,3.51786,5.46162,3.0759,4.15256,2.09133,1.99248,2.47711,3.59521,3.92893,2.60364,2.06762,1.99765,1.73651,1.69834,1.88891,0.572863,1.87142,1.65782,1.40932,1.98443,2.90934,2.87533,3.24799,3.65823,2.09397,1.71422,2.78044,1.05991,2.0534,2.27114,1.34389,3.36374,2.35159,3.1542,3.06049,2.6371,5.22074,9.44205,16.5605,23.4253,42.8782,116.573,308.853,619.094,862.418,831.164,606.794,326.646,133.041,41.5088,13.546,7.92092,6.82231,8.57846,11.7781,11.8803,23.2628,44.7342,69.4642,69.1333,46.9562,25.399,14.402,13.6594,14.8292,15.5788,19.4444,22.7989,25.4529,33.0479,0,0,0,0,0,0,0
448,2.55129,4.42469,3.6576,2.26786,1.49092,-2.98408,14.4788,-0.579987,8.10278,6.09064,3.64163,4.69269,9.72524,7.48581,5.23723,4.77653,2.60059,4.34657,2.41971,3.26645,6.3919,4.6981,-1.61737,5.97062,3.79737,5.40455,5.31033,3.95001,5.1054,3.85599,3.87461,3.23554,4.25031,2.77316,3.22042,2.48348,2.65729,2.93581,2.78727,3.03305,2.02358,2.86688,1.19143,1.15213,-0.465966,0.99101,1.70375,0.709166,3.25151,3.33666,2.78825,4.48728,3.03557,3.12298,1.70877,2.67467,0.514093,2.19141,1.71845,0.556192,2.88393,2.78829,2.82609,3.26469,2.34451,3.71519,5.91999,10.6519,16.4551,29.0388,54.2951,147.386,377.617,683.717,841.067,760.412,515.023,257.357,98.2585,31.6491,12.0907,6.38168,6.89765,9.70962,9.45296,13.5171,26.5174,50.7234,68.1545,61.9932,41.026,22.734,15.2037,12.5191,14.381,15.5743,19.677,22.7438,27.1769,29.9136,0,0,0,0,0,0
450,1.17984,16.0719,6.87878,3.46865,-2.92234,1.41736,7.74726,-4.26321,11.5843,1.62073,4.68792,0.600148,9.61512,8.08882,3.83646,9.61088,-0.0820036,5.62765,0.305708,3.38694,5.28376,5.11402,-0.198072,6.49339,4.67194,5.38311,4.0123,3.57674,4.91571,4.42988,3.69798,2.88603,4.08446,1.97045,4.45197,3.52267,2.59912,2.61202,0.987173,2.7434,3.0859,1.41838,2.56514,1.96495,0.322699,1.19869,2.27459,0.819429,1.19332,2.90435,2.1588,3.83786,3.80802,3.33939,2.54855,2.51087,1.40991,1.86691,1.5729,1.38962,2.71491,2.65656,2.69532,2.51091,2.94723,3.59827,3.46743,6.7152,10.3818,21.124,28.7059,60.7093,185.121,451.331,715.73,817.271,691.792,425.964,205.186,74.4448,25.8357,9.08422,6.0031,6.9774,8.58686,10.0259,15.358,29.227,51.9389,68.3259,60.9319,38.6149,21,12.5398,12.9699,12.7474,16.4483,19.6149,22.6905,24.0726,31.6022,0,0,0,0,0
452,2.15527,13.5893,7.78764,4.6715,4.70478,5.2526,8.941,-1.90162,13.1425,-0.625686,3.31163,-0.304133,7.88557,4.22551,2.35905,10.4848,1.44753,3.54642,1.26661,4.1147,7.9776,3.03791,0.384237,7.0305,6.05725,4.95903,1.04303,1.78574,2.99949,4.35665,4.75369,2.20031,2.844,0.985461,2.87061,1.37814,3.1439,1.75236,-0.310423,1.47862,2.76873,0.398909,1.21657,1.66162,0.72742,1.10458,1.53102,1.9367,1.08266,2.94561,1.78759,2.87393,3.33065,3.23566,1.75935,2.17472,2.29604,1.79688,1.20365,1.72085,2.05245,2.47379,2.28409,2.74702,2.9675,2.88426,2.61793,4.70465,7.11391,13.6797,19.4924,30.2258,77.2763,241.487,498.852,730.777,783.839,603.383,361.235,162.114,61.2528,18.6214,6.80059,5.37871,6.65639,9.02321,10.3183,15.1482,31.4623,55.5851,68.6741,57.0039,35.9424,17.7328,12.7281,10.6679,11.8424,15.7951,18.0816,21.0403,26.1011,30.4225,0,0,0,0
454,-4.49388,1.05143,3.57023,12.5415,12.5465,-1.66643,8.89952,3.13042,11.5845,-1.23988,4.96655,1.49303,5.84622,3.85135,2.34168,5.57367,1.9195,5.12817,5.42755,5.35876,7.6091,0.939461,0.506175,5.45158,6.43056,5.28585,2.91114,2.16859,3.10699,3.77017,4.21317,1.21374,3.14486,2.09781,1.72609,-0.0174472,2.67778,0.14313,1.46911,1.17278,1.98082,0.860938,1.54164,-0.129622,1.60562,0.745327,1.90862,1.84306,2.607,2.75412,1.70524,1.90845,2.21333,3.71377,2.83081,2.61797,2.32445,2.03577,1.53437,0.57713,2.43689,3.17452,1.31368,3.36514,2.95017,2.72035,2.17423,2.80744,5.29624,8.82822,14.9661,20.8508,35.3718,103.069,279.018,546.647,743.115,724.887,532.5,301.582,136.564,43.0543,14.0085,5.68348,6.49179,7.31041,6.76827,10.8576,16.9191,34.908,56.5082,67.6109,56.0169,31.8126,16.7662,10.6454,10.326,11.8045,14.2475,19.1854,22.032,22.6857,28.5463,0,0,0
456,-7.83401,3.52206,-1.4068,13.9979,13.8847,-2.1739,7.01203,0.718242,10.3867,-0.698006,6.31195,3.77009,3.51941,5.95892,5.18774,2.57326,1.22263,4.67208,4.57196,3.2622,6.62767,1.38172,2.46766,4.73054,5.34067,5.11209,3.80122,2.67164,3.32986,3.77539,2.91067,1.99141,3.26042,1.96481,2.17389,1.23906,2.04027,0.887018,2.07661,0.838168,1.14984,1.25091,2.1891,0.237623,2.17927,-0.655023,2.12874,0.864135,1.86815,1.54365,2.06674,1.88608,1.94566,3.9844,2.87314,2.4382,2.20339,1.45979,1.67454,0.572464,1.9773,1.9605,0.460493,2.03467,3.77095,2.84042,2.04642,2.56342,3.1968,6.36683,10.9471,16.2213,21.6282,44.7442,131.988,343.218,587.673,729.77,658.47,458.551,244.238,94.7022,33.3497,10.0552,6.58699,5.79517,6.50985,8.91117,11.3682,18.8713,36.5559,59.3036,66.1963,54.1028,28.9104,15.6823,9.45464,9.2315,11.9009,14.9123,17.6658,20.2033,24.3532,27.9727,0,0
458,-3.19301,7.16158,5.0453,6.4099,12.0073,1.75922,8.41863,3.00708,7.04622,3.09188,5.84198,3.67688,5.91145,7.35672,6.22417,1.52192,3.45396,2.45521,1.9667,1.7132,5.90731,1.77602,4.00544,3.92645,3.46579,2.93723,3.47728,3.10508,2.77054,2.69167,3.07889,1.44589,2.32064,2.02938,2.71949,1.58114,1.85977,1.53413,1.65058,1.89776,2.0879,1.32597,2.39203,0.513091,2.12156,0.375022,2.12712,1.01852,1.45197,0.982395,1.96161,1.61971,2.68875,3.31224,2.30607,3.04439,2.5102,1.705,2.15518,0.999466,1.59552,0.686585,0.604406,1.92959,2.80406,2.98363,2.31021,2.52679,2.2163,4.3748,7.69007,10.6178,16.6749,23.5475,54.2607,172.129,385.624,624.567,702.523,596.747,388.957,185.508,74.8957,21.5354,8.15374,5.36147,6.33489,6.85544,8.70063,11.2353,19.7241,40.8795,59.8585,67.1286,48.1729,27.2304,13.2173,9.21414,11.2478,11.8107,14.2055,17.4831,20.529,24.3092,29.3135,0
460,-0.585378,4.98097,4.68577,7.72317,13.7842,1.3156,16.3292,3.4036,5.70289,5.63737,4.18032,2.3229,6.54944,5.50614,4.31967,3.11757,4.01313,3.01668,3.88205,-0.16813,5.92122,1.43132,5.77069,3.42678,5.13143,1.74535,3.82134,2.6313,2.24737,2.60599,4.19652,1.54535,2.09512,1.52188,1.30373,1.30863,1.88313,0.997909,0.879766,3.10528,2.15151,2.57684,3.06836,1.35588,2.44831,1.75962,2.18953,0.700945,0.907123,1.09628,2.00036,1.64815,2.86257,1.86568,2.63097,3.07559,1.83875,2.36328,1.68619,1.21338,1.6699,1.08967,0.920159,2.44217,1.27409,2.78894,2.38424,2.04751,2.32317,2.61662,5.37686,6.6077,12.927,16.3335,26.3639,72.8478,200.566,444.237,635.503,660.382,541.705,322.739,155.676,51.8915,15.8054,6.74339,5.86376,5.17952,6.35455,8.98635,11.8708,21.7238,41.1323,62.5876,67.1432,44.6066,24.3907,13.0442,11.3811,9.96509,12.3008,12.9346,15.9531,19.6452,23.2974,25.2132
462,0,3.64927,6.24861,10.9327,8.51876,-1.66989,14.1429,-1.51591,6.24814,1.32188,4.16683,2.86584,3.49094,6.03121,5.64959,3.59987,4.56001,4.64292,3.90186,-1.22014,6.1905,1.49037,3.62677,2.06813,5.56992,3.23369,2.81726,1.93521,2.61645,2.9583,3.16659,3.08326,3.06079,0.878096,1.55509,0.90364,1.86549,1.85399,-0.0345323,2.59277,1.39342,2.92689,2.21896,1.25064,1.85317,1.42245,1.73862,0.206693,1.05958,1.66678,1.63703,1.78791,3.11645,0.8379,2.03045,2.2228,1.96719,3.07352,1.93044,1.07659,1.08074,1.80265,1.1535,1.87971,1.20043,2.60028,2.09187,2.08236,2.021,1.6904,4.05784,3.91321,8.11039,12.6545,17.8989,31.9686,86.7299,255.854,474.238,626.833,627.27,467.822,274.533,115.56,38.9155,12.3904,6.27147,4.37556,4.80534,7.56508,9.20848,11.5981,21.1102,44.5963,69.7477,61.985,43.398,23.0275,12.82,9.68914,10.064,10.3648,13.1642,15.3138,19.6457,21.7721
464,0,9.81175,0.55837,5.30345,4.27985,-6.03855,7.17759,-0.96122,3.838,-0.363548,6.17149,2.07691,7.10442,5.63847,7.93541,3.00336,5.05327,5.56035,1.4695,-0.399022,5.63418,1.22025,2.09529,2.36539,5.08319,3.69888,0.777589,2.18396,0.936243,3.55467,2.23329,2.93636,2.51797,1.6966,0.363348,0.231408,1.814,2.18371,1.23951,1.3326,1.60643,1.58436,1.57766,0.594792,1.84019,1.25267,2.12599,1.43569,1.5338,1.96832,1.06237,0.822107,2.60712,1.1107,1.94505,1.74045,2.92523,3.29194,2.46404,0.787405,1.35725,1.65438,1.15172,1.4756,0.713005,1.50558,2.30151,1.78952,1.85493,2.08266,3.2384,2.72015,6.11656,9.58565,13.7425,18.7127,38.0375,128.199,297.949,503.039,615.488,569.743,406.39,210.843,86.4579,28.0602,9.37258,4.53076,4.26735,5.55607,7.45033,8.86702,11.7527,25.6958,52.8621,67.1692,60.0962,39.9893,20.6467,12.211,9.03436,8.8762,10.2444,12.9039,16.1921,19.5529
466,0,0,5.66128,2.63435,9.86637,-3.21705,7.87861,3.66622,6.65332,-2.95416,7.34896,1.17033,9.7468,4.46514,9.0062,3.16691,1.69052,7.6103,2.51492,3.03767,4.30124,1.39338,2.20525,4.70929,3.71116,3.74716,0.467251,3.1597,0.359959,2.00134,2.03021,2.4017,2.05139,1.44973,-1.01478,0.81107,2.61212,0.942383,2.00504,0.861893,1.22228,2.2082,1.43631,0.56948,0.331425,2.05739,2.81719,0.712255,1.93729,1.06096,0.89368,0.351361,1.39597,1.93377,2.08587,1.46876,2.72721,2.99543,2.71311,0.824183,1.01732,1.29174,0.798749,1.21606,0.837877,1.33902,1.82332,0.516247,1.60934,2.17029,2.31118,2.09275,4.02466,6.1519,10.0968,13.8022,20.104,54.2546,150.14,336.341,514.571,594.058,522.831,332.218,170.58,63.8306,21.4,7.73125,4.3053,4.85105,5.99651,7.78336,8.54345,13.7524,31.014,54.0063,66.5201,58.0306,35.8386,18.1606,10.2537,7.50314,8.00514,10.1952,13.1309,15.9734
468,0,0,14.3105,-1.56815,8.42122,-1.74381,6.3477,5.26358,7.87882,-3.80467,6.65153,1.65322,6.29405,6.89608,6.37178,2.17738,1.36934,6.56968,3.22796,2.52092,3.44241,1.7418,2.14553,4.66846,2.77433,4.71148,1.74459,3.89133,-0.0512746,1.64175,0.494409,1.10913,3.34129,1.15989,-0.813205,2.24827,2.38682,2.20349,1.60441,0.0769643,1.24986,2.69212,1.49793,-0.00525639,-0.297143,1.3196,1.50755,-0.584716,1.57019,0.514481,0.704046,0.384858,0.833557,2.44505,1.87326,1.39526,1.7933,2.84361,2.74151,1.47954,0.823261,1.44462,0.729665,1.37906,1.04624,1.27593,1.3739,0.433668,1.58523,1.72799,2.02957,1.90712,1.90411,3.64056,7.75625,11.0631,13.3934,23.4891,64.3782,187.059,363.522,533.68,570.895,452.438,283.349,126.869,47.6819,14.4062,6.20697,3.40568,4.39469,6.65377,7.5593,7.67946,16.133,31.955,57.391,68.1476,55.4543,31.0188,14.3267,8.68672,7.73419,9.39491,10.9545,12.8754
470,0,0,0,3.87003,0.861808,0.0975978,10.5799,2.67484,-1.07089,4.56333,9.44602,0.247995,3.88369,6.32014,-0.0801631,1.32943,1.69367,3.30431,4.29177,0.301157,2.0368,2.37585,0.498702,3.13774,4.31094,2.07666,1.48228,3.78336,0.61382,2.28457,1.80575,0.17304,2.67537,0.108054,0.599066,2.34639,0.829049,2.7154,1.56375,0.418787,2.16446,2.85673,0.752951,0.628143,1.01299,0.780232,-0.028226,0.101589,0.735024,0.849379,0.552233,1.33899,-0.0835412,3.24184,1.96835,2.03975,1.47088,2.56656,2.92304,1.18537,1.51465,1.04014,1.0488,1.59613,1.8569,1.29659,1.12814,0.758054,1.42378,1.59256,2.44608,1.38249,2.65562,2.24647,4.69047,7.60386,10.4526,15.3132,29.5154,84.8666,211.235,407.41,529.626,526.122,404.351,225.909,101.317,34.8737,12.2977,4.73365,4.2606,4.7825,5.54961,6.92591,9.63695,15.4977,36.1488,59.9167,69.9514,52.4081,27.1747,14.6954,8.20722,8.74495,8.46013,10.499
472,0,0,0,6.62557,4.8133,11.4299,19.0262,0.105853,1.53869,8.74671,9.27625,1.23386,6.64787,5.62216,1.42142,-0.351835,4.08119,3.10015,5.09757,0.539927,0.624696,3.00054,1.13138,2.93917,3.87949,0.883123,0.930268,3.47638,0.283354,2.86562,2.40402,1.12344,0.948921,-0.0584268,1.31759,1.11779,1.32818,1.23566,1.13413,0.687469,0.978282,2.21766,0.501021,0.652797,1.11135,1.50399,-0.463889,1.09493,-0.132967,1.415,1.59595,2.1591,0.150685,2.36051,1.63406,1.85902,1.46512,2.11524,2.94745,2.30749,2.78111,0.208599,1.14792,1.31536,1.61515,1.62053,0.956919,0.534376,1.82784,1.56015,2.50168,1.04495,2.66293,2.25959,2.50271,5.05257,7.48389,11.4222,16.1922,33.8747,99.069,253.175,426.09,532.955,488.013,341.588,186.122,73.2171,26.2608,8.9391,5.13695,4.70426,4.88709,6.10016,7.67719,8.32,17.9834,38.568,62.1607,67.1822,49.2875,27.1084,11.9582,8.21022,7.51757,8.73078
474,0,0,0,0,5.03526,9.24688,14.7486,0.0329046,2.08448,6.03203,9.69041,5.13235,8.32134,3.54962,1.9087,-1.60521,3.09545,4.0673,4.80622,1.36434,1.14431,3.16595,1.38045,1.71538,2.55248,0.842563,1.4171,1.75601,0.266663,4.07149,1.95144,2.28123,1.09316,0.293452,1.32976,-0.299131,1.97245,0.221588,1.43555,0.213278,-0.505283,1.32481,0.247466,0.629333,0.651052,1.64794,0.255334,1.62755,0.946862,2.19044,1.52055,1.34977,1.64193,0.936906,1.55307,1.28085,0.616821,2.47237,1.94325,2.473,2.84067,0.934022,1.06152,1.41429,0.886749,0.866832,0.309741,0.470984,1.47156,0.924176,2.1844,1.45736,1.68879,2.36226,2.16337,4.14796,5.12495,8.21307,13.0049,17.9118,40.5522,125.217,285.16,458.741,515.296,438.849,294.621,143.367,57.7992,19.3899,6.69663,4.76088,4.05657,4.43624,6.97701,6.23093,9.09267,19.8984,41.2668,63.8144,66.5444,46.6713,24.0899,11.8208,8.28816,7.46431
476,0,0,0,0,8.74528,3.45925,10.6408,-1.79965,-1.3683,6.89325,8.93484,6.04095,8.26416,1.0991,2.50197,-1.51957,1.5831,1.11788,2.77092,1.247,2.96639,3.38326,2.70861,1.74763,2.92615,0.833829,0.563313,1.67074,1.55799,3.16793,2.12483,1.81402,1.6107,1.03406,1.67426,-0.482945,1.59715,0.0892185,1.57017,0.754893,0.234826,0.986471,-0.433969,0.951104,0.697902,0.83084,1.27338,0.568513,1.55307,2.1062,0.627376,0.990946,1.819,1.35302,1.07841,1.3081,0.248094,1.93153,1.2759,1.3351,2.46848,1.81219,1.08496,1.79098,1.10532,0.712666,0.623905,1.23953,1.10845,0.438608,1.28038,1.20356,1.26383,1.85915,2.16283,3.28227,3.59497,6.08088,10.548,12.3771,19.8327,57.2766,159.535,332.155,463.643,483.528,386.641,232.961,113.668,40.4375,14.0776,5.80506,4.06669,3.25586,5.68052,5.17647,6.82448,11.1171,21.9175,46.6999,68.367,62.9267,42.2242,21.4738,10.8304,7.02379
478,0,0,0,0,0,5.50747,6.88214,-1.27186,1.22969,6.49004,5.40842,5.52436,5.21247,4.63667,6.49871,0.993662,2.28251,1.99882,2.69757,1.83354,3.83678,1.34059,3.78115,1.91865,4.40334,-0.148254,1.07114,1.75787,1.00499,1.5227,1.56688,1.34448,1.84557,0.828312,0.87934,0.167409,1.14023,0.753035,2.16328,1.10544,0.139323,0.383944,-0.113576,0.582257,0.19949,0.885194,0.98895,-0.00407481,1.66325,1.2974,0.119683,1.29483,1.05999,1.4789,0.810772,0.525001,1.2433,1.71486,0.228997,1.27248,1.85328,2.09133,0.305151,1.16642,1.04165,0.257097,1.10388,1.12083,0.928448,0.727973,1.41909,0.729419,1.10169,2.07498,2.03751,2.67296,3.02307,4.07626,7.37663,10.1544,12.1278,24.8055,73.6247,200.733,353.64,462.543,446.839,332.155,197.266,84.3902,30.112,9.95744,4.45764,3.43693,3.78857,4.37751,5.78788,7.28842,10.8726,26.2124,52.5738,66.6834,62.7821,38.7096,17.9608,9.43451
480,0,0,0,0,0,2.61652,8.87177,3.79354,2.20111,4.11894,6.21087,3.82318,6.49748,6.34682,4.7039,-0.0466024,2.11946,1.64495,3.17625,2.82368,2.69459,0.548287,4.0637,2.40801,4.23638,0.590497,1.99761,1.15351,0.0838736,0.407172,0.530304,0.935829,2.11534,1.39921,0.300682,0.743496,1.68916,2.05759,2.59193,0.484046,0.351193,0.287549,-0.276793,0.633094,0.349803,0.989391,0.976713,0.216422,1.16813,1.07332,1.13649,0.996992,1.25604,0.932651,0.614416,1.0991,1.4732,0.640268,-0.0766478,1.70448,1.86232,1.70311,0.257808,0.946718,1.15249,0.303151,0.349215,1.17071,0.674349,0.938972,1.53705,0.851451,0.850051,2.05356,1.87592,1.79051,1.28005,2.77701,4.83585,7.26035,10.2203,14.455,32.6393,99.5665,227.877,376.971,444.209,405.246,287.063,152.955,64.3876,21.257,7.44144,3.8958,3.11486,3.24577,4.40672,6.30156,6.51269,12.3448,29.8946,53.8522,70.613,60.7533,34.065,16.9078
482,0,0,0,0,0,0,11.7823,5.93837,4.0281,9.02273,5.61297,4.99799,8.21784,5.8142,6.73232,-2.10587,0.651264,1.03679,1.60712,1.65644,2.38908,1.51419,2.49609,1.79882,3.99402,0.681659,1.48252,0.82363,-0.0109748,0.772372,1.1117,1.64668,2.83626,1.49274,0.902631,1.3213,1.5655,1.4438,1.91076,0.144703,0.804742,0.410211,-0.79401,0.850118,0.62261,0.89865,0.569477,0.477706,0.129207,1.17466,2.24962,0.424998,1.25547,1.14901,1.27645,0.475726,1.4981,0.388527,0.975504,2.27258,1.7723,1.94901,1.04012,1.00694,0.952261,0.878741,0.28322,1.18371,0.894635,0.844549,0.770989,0.819326,0.78192,1.20268,1.52968,0.976371,1.21534,2.52841,3.23005,5.07474,9.88938,11.0662,16.3959,42.2906,119.086,256.49,385.223,423.149,362.218,232.735,121.194,46.7651,15.4404,6.03382,3.24046,2.77926,3.5898,5.05846,5.16238,6.87501,12.4386,32.8607,58.0779,71.1311,56.3075,31.4939
484,0,0,0,0,0,0,12.6443,1.40473,3.2621,3.59244,4.43137,3.19129,5.28332,6.50009,8.2767,2.70781,2.01269,-0.4273,0.838324,1.01951,3.4816,5.08626,0.19342,2.49074,3.78009,1.86963,1.7898,1.55839,0.560489,1.84026,1.18913,2.63227,2.67972,1.08713,-0.220709,1.18053,1.48808,1.97069,2.23389,0.0243301,1.17619,2.08034,-0.299218,0.619835,1.1024,0.590612,0.324283,1.09472,0.768384,1.53836,0.581682,0.732921,0.340017,1.48847,0.832745,-0.0289696,1.43188,0.807335,1.01987,1.50207,1.88703,1.9681,1.45923,1.1758,0.624855,1.1968,0.724942,0.650935,1.21876,0.82618,0.416931,0.296821,0.62954,0.875162,1.06347,1.28218,1.70952,1.28446,1.70131,3.62571,7.0917,8.56321,11.3693,19.2183,51.9652,147.622,279.879,387.243,402.709,313.398,196.957,93.6337,34.2305,12.5537,4.05921,2.07745,3.07261,3.2057,4.53522,5.36992,7.27544,16.0583,34.9318,62.6306,71.1011,51.1018
486,0,0,0,0,0,0,0,3.92336,-0.99084,1.27431,2.39285,-2.31408,0.872041,6.97603,6.40691,6.83964,3.15926,-2.04129,1.8687,3.91713,4.21637,3.18537,1.15092,3.10708,3.24809,3.44289,2.61195,1.3871,1.26324,1.52865,1.73682,2.02103,2.45575,1.59077,-0.163245,1.70262,1.76676,1.90701,2.64118,0.739973,1.96372,2.70024,-0.400631,0.661598,1.31351,-0.210854,1.26663,-0.0202597,1.07548,0.95516,0.741597,1.01866,0.177751,1.612,0.694417,0.6141,0.868851,0.890987,1.05997,1.17059,1.85965,1.79487,1.39269,1.28885,0.491387,1.07405,0.699756,1.0145,0.892818,0.484108,0.537234,0.183418,0.7317,1.04481,0.924213,1.41147,1.3557,0.685139,1.61606,2.45663,4.27493,6.63287,8.4165,12.8488,21.7153,70.4255,167.585,303.131,387.569,366.273,273.996,160.056,72.5917,27.2554,7.58015,2.89901,2.74746,2.44873,3.18555,4.53876,5.39912,8.60562,16.2268,42.8493,65.7425,68.1023
488,0,0,0,0,0,0,0,2.62662,-1.12375,5.07059,4.03797,-3.71144,4.51876,3.60529,6.87184,5.2481,3.63491,0.575042,1.03662,2.87482,1.62119,-1.06423,2.30282,1.11161,3.80909,2.93721,3.60294,0.773275,0.844505,1.96984,1.32787,0.778819,2.65203,1.83562,0.628167,1.12215,0.10083,1.04033,1.09052,1.43637,1.16891,2.53728,-0.121579,1.57257,0.463627,-0.497317,0.570234,-0.238995,0.641954,0.793723,-0.180568,0.43649,0.271613,2.13451,1.68657,0.639891,0.660033,0.815616,1.0368,0.688987,1.47936,1.42727,0.712444,0.764219,0.80844,1.20544,0.702996,1.34542,0.286838,0.300384,0.39834,0.0961573,0.901228,1.37323,0.579746,1.05165,1.38898,0.725356,1.92398,1.82018,1.95969,4.45294,6.40685,9.85152,10.3472,30.1664,84.4463,203.668,315.126,374.718,330.442,230.767,128.515,53.426,16.8783,5.78238,3.00464,2.07342,2.03371,3.06003,4.11519,5.16915,8.0331,21.9203,46.3282,67.1154
490,0,0,0,0,0,0,0,0,2.82202,8.0389,6.1698,-0.329037,8.93494,4.81946,2.42791,2.56003,4.53253,1.8089,1.97294,-0.736326,3.60362,-0.295696,2.81229,2.13249,3.55421,0.419753,3.21229,2.45489,1.30432,1.65213,0.525583,0.905991,2.02098,0.691569,0.746284,0.247068,-0.145923,0.244089,0.767097,0.738004,0.794811,1.9382,-0.0132464,1.30501,-0.038785,-0.186399,0.904603,0.902539,0.303654,1.20694,0.0419621,0.721361,0.732755,1.8905,2.09827,0.39931,0.606628,0.446658,-0.147222,-0.348201,1.0834,1.41831,1.04644,0.501374,0.327215,1.54676,-0.0950741,0.696057,0.0637104,0.47846,-0.0721317,0.231413,1.08306,1.18435,0.013407,1.07792,1.28484,0.773214,1.55982,0.907821,1.11303,2.78033,4.84268,6.98363,8.93457,14.3786,35.6592,113.773,219.543,325.952,348.487,288.61,193.814,99.0196,36.7319,12.6293,5.18162,2.59163,1.59523,2.53241,3.90144,4.31654,5.715,9.42621,24.9203,48.7718
492,0,0,0,0,0,0,0,0,1.02118,2.64863,6.20635,0.247514,4.88175,5.97499,1.13777,2.65221,3.27446,0.808341,2.6088,-0.399286,1.08504,0.629495,0.976885,2.51887,1.48819,0.156935,2.82493,2.07124,1.45825,0.949764,0.157187,0.292917,0.571795,0.63593,1.54931,0.977153,1.04186,0.587349,1.62257,0.205242,0.525691,0.450791,0.549259,0.429519,0.235117,0.0430196,0.563347,2.56567,0.0120847,1.63705,1.35231,1.72844,1.23287,0.612706,2.05249,0.23346,0.0318792,1.11228,-0.760071,-0.185469,0.747892,1.13352,1.78067,1.5316,0.742856,1.33765,-0.332094,0.0612537,0.221171,0.473446,-0.0934706,0.663809,0.949691,0.312517,-0.0830008,0.739269,0.787071,0.80818,0.987395,0.920409,1.0597,2.21649,3.19658,5.41551,7.31918,10.508,15.5841,49.4364,125.728,237.608,317.21,312.734,250.516,154.268,73.4828,27.4272,9.48013,3.14261,2.21275,2.26876,2.61692,3.39539,4.70071,5.83059,10.5578,25.55
494,0,0,0,0,0,0,0,0,0,-0.536526,6.56804,-0.280941,5.4235,-0.465424,2.93438,5.06721,2.78083,-0.503069,2.73255,1.39853,-0.0799739,1.33741,1.72777,4.19099,2.95573,0.771553,2.5409,1.20295,2.92696,0.800946,0.019164,-0.678868,0.554505,0.964912,0.818586,1.93796,1.79919,0.38829,1.74165,0.29705,0.732776,-0.227172,0.567918,0.667677,0.212263,0.0549342,-0.569014,2.80954,0.10641,-0.118211,0.837387,1.12479,1.37096,0.0641468,1.20491,0.68872,0.015013,1.10082,-0.938265,0.469759,0.581247,0.674889,1.49563,1.83758,1.65943,1.03854,0.129711,-0.319074,-0.324881,0.562322,0.195105,0.104232,0.627969,0.222308,-0.236756,0.537061,0.482618,0.981656,0.708977,0.883949,0.674261,1.54959,1.62001,3.0182,4.98991,7.38314,9.27253,17.9825,58.3635,146.197,247.138,293.019,277.998,201.55,117.773,52.9794,18.3992,5.9445,2.70518,1.98398,1.22702,2.32263,3.47667,3.75882,4.88483,11.9076
496,0,0,0,0,0,0,0,0,0,0.557788,7.50308,-1.01628,4.509,-0.607346,5.40343,4.99704,3.09538,-1.90296,1.58817,0.425706,0.488964,0.735142,1.05825,1.90953,3.37735,1.32149,1.93907,1.79646,2.45741,2.26959,1.36816,-0.612108,1.11656,0.156004,0.505335,0.625434,1.30488,-0.0609014,1.5507,0.95847,0.980717,0.711387,0.747971,1.27523,0.434868,-0.0716198,-0.0106211,0.501088,0.286701,-0.347281,0.167356,1.30033,0.522679,1.06421,0.981003,0.401765,-0.636195,0.629316,0.685228,1.01279,0.725887,0.181226,0.913361,0.959725,1.12898,1.37128,0.184432,0.18896,-0.425848,0.606931,0.126923,0.3874,0.287403,0.60607,-0.146441,0.0332118,0.826315,0.699115,0.758595,0.696444,0.473689,0.561945,1.39111,1.69657,3.45786,5.94043,7.77015,9.22643,23.9372,73.9417,157.798,233.536,264.667,235.451,161.098,90.2075,37.1263,12.5602,4.1837,1.75127,1.12117,1.95478,2.74095,2.52717,3.97925,5.32424
498,0,0,0,0,0,0,0,0,0,0,7.54894,4.04963,3.08039,2.59774,5.44016,2.74128,3.11954,0.391886,-0.786981,-1.95178,1.48073,0.851703,0.383828,-0.45288,1.83879,1.3876,1.89218,1.41711,2.60991,1.78567,2.02395,0.383328,1.27796,-0.066666,1.49094,-0.798034,0.985493,1.02275,1.72924,0.0783377,0.652546,1.22581,1.46914,0.571351,-0.0539315,0.101762,0.355836,0.548687,0.313493,-0.815753,0.838771,1.22312,0.129317,0.908853,1.02443,-0.225293,0.261071,0.148437,1.56083,1.09758,0.613474,0.69135,1.15281,0.489944,0.55315,0.734418,-0.0357008,0.21726,-0.251171,1.52969,-0.0375084,0.195521,0.620786,0.583481,0.119392,-0.517901,0.323009,0.740651,0.504163,0.471138,0.304304,0.417206,1.13471,1.05139,2.27922,4.33239,5.87231,6.60532,10.6505,30.1729,82.7742,163.078,223.619,244.074,191.637,129.611,66.6304,27.7219,9.28065,3.01033,1.45134,1.36342,1.76427,1.66193,3.51271,3.02299
500,0,0,0,0,0,0,0,0,0,0,7.15215,8.70726,7.81336,-0.105655,0.768337,1.80636,3.71864,0.85786,-0.355159,-3.15007,1.17314,1.79435,1.45004,0.197677,1.28581,1.16323,1.97318,1.08224,1.56906,0.545016,1.7487,-0.138106,0.225465,0.482723,1.67448,0.274249,1.44349,0.700144,1.28728,-0.772034,0.260822,1.19908,1.51525,0.26196,0.0338046,0.174768,0.498886,0.745175,0.77473,-0.175531,0.631232,0.987261,-0.550305,-0.226207,0.523915,-0.0407541,0.189372,0.0125995,0.781145,0.0182131,0.427975,1.18062,1.10767,0.0277248,0.527086,-0.0419761,-0.19365,0.04697,-0.177847,1.25166,0.500154,0.377117,-0.002872,0.350803,0.388323,-0.737012,-0.434768,0.572843,0.4881,0.45213,0.203592,0.786827,0.625746,0.486805,1.71353,2.54204,3.70523,5.56532,6.86892,11.8936,36.6016,98.4608,165.199,215.877,207.305,161.34,101.54,49.7662,18.7822,6.56198,2.03209,1.02619,1.31388,1.53138,2.69732,2.80272
502,0,0,0,0,0,0,0,0,0,0,0,12.9052,9.05564,-0.467664,1.31536,2.11062,3.04218,1.16789,1.33695,-1.07222,0.780051,0.808227,0.489342,0.879478,0.616936,0.380865,1.31885,1.31161,1.19115,1.6726,1.29257,0.890219,-0.355784,0.0767304,1.49219,1.40174,1.22801,0.380541,1.24676,0.369385,0.895923,0.168391,-0.284882,-0.0143151,0.580174,-0.201478,1.09418,0.245307,0.124625,0.758353,0.134543,-0.213845,-0.640547,-0.38483,0.419363,0.164985,-0.454542,0.237324,-0.0669299,-0.523418,0.708766,0.558591,0.227226,0.746631,0.631936,1.03233,-0.0441754,0.159844,0.52882,0.870045,1.17093,0.535805,-0.304712,0.472946,0.151041,-0.336586,-0.206623,0.00377614,0.594132,0.570076,0.150527,1.14868,0.0758716,0.572648,0.898645,1.37658,2.27545,4.53094,6.29366,7.24996,15.3074,48.833,102.716,169.003,199.015,186.37,137.416,78.7495,34.7212,12.3174,4.20708,1.90643,1.12897,1.27488,1.76523,2.39024
504,0,0,0,0,0,0,0,0,0,0,0,9.8941,5.75518,3.74473,1.01583,3.67723,3.46063,2.6885,0.139387,-0.443526,0.858724,0.54832,0.0442617,3.02197,-0.103037,1.00678,2.3017,0.38403,1.03356,2.82961,-0.13903,1.43121,-0.707827,0.401062,0.967462,1.29704,1.05384,0.786229,2.14517,0.0653303,2.20233,-0.367794,0.0273962,0.378705,0.466842,-0.304769,0.350085,1.05315,-0.790388,0.701238,0.811635,-0.321876,0.0259869,-0.534031,0.397541,0.640761,0.111478,0.584222,-0.284193,0.0337508,0.133907,0.348179,-0.500135,0.550381,0.164343,0.408577,0.326544,0.221725,0.469807,0.24023,0.954853,0.819145,0.525072,0.105234,-0.0575925,0.276125,0.525951,-0.134761,0.302604,0.652883,0.121364,0.728593,0.247731,0.320277,0.388049,0.571675,1.77356,3.45319,5.17862,6.6179,7.15868,19.6344,54.8247,117.854,170.76,191.499,164.579,109.789,61.3305,25.5584,7.86171,3.62143,1.2591,0.719243,1.62567,1.99413
506,0,0,0,0,0,0,0,0,0,0,0,0,5.34431,6.0064,1.20966,1.02386,1.12713,2.5583,0.153376,-1.56597,1.73336,3.15893,0.374278,3.78455,1.12888,0.971585,2.47203,0.515527,0.814928,1.0674,-0.298503,1.02606,0.355248,1.35563,0.940865,1.24924,1.12148,0.608491,2.25032,-0.23143,1.15748,-0.321175,0.39632,0.138123,0.168506,0.159332,0.589991,0.78887,0.891248,0.728335,0.837771,-0.0976247,-0.324294,-0.683345,0.593541,1.21021,-0.310686,0.658107,-0.152811,0.242956,0.0341584,0.876253,-0.396978,-0.232146,0.351799,-0.433522,-0.20452,0.295103,-0.222158,-0.0916282,0.971882,1.01099,0.699943,0.0560932,0.0142402,0.503,0.722787,0.00818759,0.385829,1.16207,0.357455,0.417404,0.25972,0.0869853,0.218122,-0.0335863,1.27114,2.11754,3.58237,4.35049,4.34746,9.11709,24.2359,66.0801,127.977,170.512,176.122,136.929,92.9409,46.2701,17.3358,7.34256,2.16148,1.20986,1.13442,1.37783
508,0,0,0,0,0,0,0,0,0,0,0,0,10.8937,5.69671,2.2801,0.294414,1.77328,4.15302,2.89278,0.214548,2.8191,4.18622,0.0238808,3.67906,0.862606,-0.22218,1.42428,0.65435,1.43458,0.330185,0.204145,1.38891,0.461036,1.1147,1.2317,1.2478,0.868334,0.862312,1.68773,0.152342,-0.277822,-0.484445,0.671077,-0.798584,-0.390795,-0.338781,1.3393,-0.170806,0.900573,-0.215405,0.390952,-0.101046,-0.268537,0.0676285,0.651282,1.04842,0.0213204,0.449361,-0.0158496,-0.172122,0.249366,0.483817,0.0183981,-0.196005,0.199286,-0.0890831,-0.123455,0.461798,-0.161541,0.172311,0.631952,1.10534,1.03245,0.408842,-0.0322102,0.551634,0.602347,-0.143981,0.500993,1.0685,0.37841,0.86975,0.147001,0.20037,0.141516,-0.109329,0.734933,1.59844,2.40847,3.67308,3.53651,5.97589,10.5096,30.5654,81.2376,133.389,166.372,156.534,121.828,73.6916,34.7286,14.698,4.49537,2.1025,1.09306,1.27695
510,0,0,0,0,0,0,0,0,0,0,0,0,0,9.33902,4.51053,3.50098,2.32563,3.11419,3.15603,2.08677,3.0824,3.80783,-0.0235111,5.21912,0.289667,0.737577,1.866,1.19726,0.97573,1.61356,0.507062,0.125544,0.417221,0.424206,0.815286,1.195,0.327033,1.53321,0.647343,-0.196119,-0.140905,0.158505,0.321128,-0.449835,-1.1091,-0.400668,1.92138,0.234346,0.544867,-0.367279,0.416233,-0.194811,-0.00944055,0.815708,0.33683,2.30852,0.775179,0.282581,0.153738,-0.180549,-0.101595,-0.0747178,0.230893,-0.116975,0.0352019,0.0418982,0.0302427,0.502893,0.652516,0.583745,0.524012,0.311645,0.991852,0.513045,0.0806775,0.257504,0.458845,-0.106159,0.278838,0.915279,0.281575,0.342969,0.107698,0.299135,0.146917,-0.0598509,0.829073,0.814846,1.20177,2.70479,3.28752,4.66828,5.67196,12.7527,42.3059,91.4816,141.687,161.763,145.517,105.253,59.2062,29.0327,10.1026,3.49066,1.30023,1.51603
512,0,0,0,0,0,0,0,0,0,0,0,0,0,11.8543,9.98916,5.82525,0.959847,2.33123,0.727858,0.0417934,5.37044,4.31461,1.13618,3.21953,1.48838,0.876005,0.085055,0.774467,1.68132,1.15239,0.652453,0.29522,0.434249,0.485968,0.801828,1.44444,0.580546,1.71971,1.57434,-0.107279,0.730934,0.711139,-1.1282,0.256264,-0.375474,-0.0963685,1.94871,0.277529,-0.51092,-0.250305,0.00713487,0.0226153,0.305036,0.715384,-0.0322346,1.09515,0.584593,0.590033,1.28092,-0.239195,-0.699519,-0.695019,0.521794,0.529764,0.087215,-0.179617,-0.342164,-0.213271,0.393478,0.438591,0.692753,0.364893,0.809549,-0.161344,0.525858,-0.139682,0.436634,0.19077,-0.0876709,0.425129,-0.190014,-0.142171,0.190219,0.106213,0.250788,-0.0937015,0.590867,0.794449,0.0851886,1.12557,2.61288,3.96215,4.5159,6.20119,20.0891,54.0123,102.214,145.966,155.904,129.897,88.8287,50.2877,21.2253,7.40672,2.41263,1.38521
514,0,0,0,0,0,0,0,0,0,0,0,0,0,0,12.0255,5.65247,-0.475516,0.0128414,-0.165,0.140694,7.21089,5.2916,2.20165,2.64594,1.95677,1.01714,-0.0771968,1.00042,2.01768,1.38286,1.70976,1.48024,0.56851,0.417333,1.15788,0.3126,1.00741,1.58818,2.26917,0.173947,0.868302,0.469287,-0.222583,0.440186,-0.16744,0.00728152,0.445854,-0.3678,-0.108534,-0.155421,-0.205089,-0.0108977,0.282071,0.0340455,-0.676892,0.762646,0.72309,1.13126,1.68766,0.14442,-0.566826,-0.905167,0.477238,0.798811,-0.028841,0.119796,0.0569074,-0.147956,-0.399432,0.0379256,0.296952,-0.037513,0.72941,-0.705397,1.02756,-0.22327,0.0802942,0.0171487,-0.188082,-0.169741,-0.316024,0.233632,0.188974,-0.156407,-0.071688,-0.28957,0.448647,0.979843,0.195886,0.868051,1.66858,3.49427,3.57611,4.5278,9.58694,27.4181,64.2319,116.552,149.349,146.021,119.235,76.3384,39.4845,15.8726,4.72417,1.77886
516,0,0,0,0,0,0,0,0,0,0,0,0,0,0,12.5265,8.45413,3.48358,-2.29277,0.361974,1.99311,6.73568,2.98181,2.57288,1.59292,1.5983,1.22643,0.420699,0.693536,0.724718,1.66748,1.63443,1.37348,2.49216,0.779339,1.21396,1.36879,0.242723,1.11709,1.49595,-0.0613317,0.478791,0.700626,-0.0354143,-0.245147,-0.715057,-0.663541,-0.852338,-0.334964,1.02584,-0.119691,-0.263295,-0.0175352,0.105467,0.103457,-1.00963,0.664035,0.714816,0.2805,0.622665,-0.318588,0.412902,-0.0336309,0.630109,0.417928,0.411607,0.0715422,0.0575475,0.346559,-0.427801,-0.13343,0.436406,0.179234,0.340545,0.26232,0.752126,-0.0394296,0.237606,0.0566399,-0.19551,0.070659,0.0308865,0.250182,0.689847,0.156266,0.14319,-0.342489,0.597135,0.47878,0.909861,0.888913,1.02517,2.04211,2.91863,3.61883,5.64219,12.2162,34.1868,77.9426,128.104,150.447,142.095,109.449,66.8025,32.7589,11.2503,3.96167
518,0,0,0,0,0,0,0,0,0,0,0,0,0,0,0,12.0441,4.82512,-2.32958,3.39031,1.18577,3.38415,0.501182,0.149161,1.65706,0.051549,2.18565,1.2846,0.346091,2.62471,0.878812,1.1791,0.426443,3.81342,0.294109,0.602497,1.14922,0.126619,0.566893,0.71669,0.566736,0.947735,0.850178,-0.00223256,-0.899577,-0.541076,-0.793417,-0.849349,-0.609256,0.622363,-0.518881,0.120777,-0.311811,0.160072,1.61313,-0.486061,-0.14366,0.109139,-0.145848,-0.29693,-0.604741,0.698673,0.372245,0.187699,0.0677156,0.58209,-0.558415,-0.919648,-0.277104,0.195638,-0.366334,0.593937,0.0785752,0.0101948,0.397532,0.278401,0.344718,0.249224,-0.0441604,0.0638751,0.102068,0.583129,0.13062,0.723537,0.197571,0.228994,-0.0140697,0.397882,0.00416506,0.734458,0.300109,1.17528,1.07529,1.93476,3.1606,4.36765,5.83149,16.0074,43.731,94.0464,140.202,152.827,137.296,100.761,56.1497,25.1923,9.60928
520,0,0,0,0,0,0,0,0,0,0,0,0,0,0,0,12.8516,8.3433,1.77339,3.03719,-0.941639,1.97199,0.551826,-0.495842,2.4385,-0.377725,1.8271,1.7396,1.94126,2.64683,0.353928,0.938292,0.254521,3.02919,-0.587985,0.997325,0.175339,-0.293254,-0.223396,0.265932,0.691904,0.671565,1.08567,-0.292466,-1.20626,-0.484192,-0.364406,-0.263826,-0.14882,-0.0986344,-0.297129,-0.357242,-0.754031,0.456246,2.02668,0.762124,0.737546,0.0535346,1.05548,-0.0408436,-0.51014,-0.193335,0.280859,-0.553413,-0.101575,0.407738,-0.476415,-0.711166,-0.577146,0.38583,0.666172,0.564539,0.413165,0.784479,-0.132662,-0.200621,0.453432,-0.0185191,0.212307,0.254415,0.337039,0.594354,0.458852,0.00773301,0.227386,-0.102222,0.343822,0.242361,-0.0377488,0.182855,0.0688389,1.00586,1.25036,1.34239,2.77635,4.06269,3.99816,6.99148,22.2181,56.2675,110.851,144.525,154.11,134.953,87.5912,48.5443,20.9682
522,0,0,0,0,0,0,0,0,0,0,0,0,0,0,0,0,17.0587,3.58921,4.26638,-0.215695,3.19866,0.814509,-0.723042,1.49419,0.638035,0.867627,-0.5601,2.52406,2.9791,0.02091,0.786334,-0.356633,2.20654,0.389586,1.06005,0.320715,-0.0591599,0.592342,1.02094,0.284309,-0.230591,1.09685,0.147605,-0.593072,0.605163,-0.345385,-0.737733,-0.0111606,-0.312611,-0.469909,-0.283213,-0.649348,0.338602,1.56581,0.935123,0.868324,0.483446,1.27342,0.0306792,-0.673401,-1.02359,0.0812493,0.111369,0.111758,-0.430186,-0.275089,-0.416523,-0.111803,0.602892,0.657028,0.306288,0.337669,0.478785,-0.220013,-0.0927064,0.575697,0.0113299,0.246461,0.291512,0.159863,0.393286,0.633936,-0.0163481,0.399442,-0.387309,0.2864,0.290726,0.0963242,0.477503,-0.121121,0.30007,1.36041,1.07921,1.78645,2.82449,3.36454,4.36253,10.8721,29.4761,75.3908,122.332,154.466,158.624,122.626,80.2878,40.5958
524,0,0,0,0,0,0,0,0,0,0,0,0,0,0,0,0,17.231,5.01154,5.48025,2.41113,4.50878,1.01706,0.511174,0.488501,1.09461,0.440726,-1.03751,2.30872,2.38286,0.674432,-0.0544611,-0.549959,1.5852,1.22536,-0.40378,0.73986,0.303968,0.845874,0.863669,0.407448,-0.454795,2.00951,0.352989,-0.543368,1.96804,0.215843,-0.542276,0.769322,0.16157,-0.285696,0.392435,0.42179,0.545728,1.16535,0.311518,-0.476559,1.00171,1.65354,-0.429377,-0.607134,-0.718501,0.622315,-0.31087,0.251524,-0.446519,0.0513748,-0.140909,-0.770216,-0.101378,0.0327751,-0.565992,-0.409539,-0.0256644,0.221514,0.392704,1.34168,-0.276707,0.151672,0.233586,-0.515131,0.00671993,0.415908,-0.217051,0.157176,-0.501456,0.446878,-0.0604344,-0.0380475,0.183504,-0.138405,0.0925321,0.771162,0.913405,1.10289,1.88383,3.09888,4.028,5.90701,14.3105,43.5048,89.3019,138.631,168.931,151.795,113.868,69.9816
526,0,0,0,0,0,0,0,0,0,0,0,0,0,0,0,0,0,5.72827,7.12643,1.70834,2.8583,0.501421,2.33353,1.85326,2.69444,0.665186,0.0298099,1.60912,0.631142,1.71235,-0.533104,-0.274788,0.713073,0.408107,-0.819007,1.04869,0.96139,0.401001,-0.32421,-0.757953,-0.159621,2.23067,-0.281781,-0.690434,1.33174,0.421918,-0.713678,0.601673,0.99124,-0.0417152,-0.490503,0.843161,0.0833607,1.69996,0.359093,-0.656233,-0.204196,1.10926,-0.0841525,-0.314722,-0.382183,0.719488,-0.0885808,0.160384,-0.219754,-0.385609,-0.13701,-0.656273,-0.765616,0.0992746,-0.627428,-0.351887,0.681549,0.470565,0.376421,0.971469,-0.0369224,0.297534,0.144153,-0.596484,-0.172119,0.064054,-0.190108,0.345154,-0.307095,0.275386,-0.111007,0.113428,0.102526,0.109501,0.276611,0.201419,0.586177,0.927203,2.07488,2.39214,3.51108,4.21586,7.32385,21.1002,55.4701,106.801,157.498,167.719,145.013,109.188
528,0,0,0,0,0,0,0,0,0,0,0,0,0,0,0,0,0,8.97186,7.06198,2.20244,2.54336,1.88201,1.06538,3.5881,2.43582,0.819593,1.40796,0.465163,0.569044,0.98031,0.434813,-0.122213,0.925145,0.39515,0.150855,1.3556,1.0492,0.732907,-0.363989,-0.77343,-0.253862,1.06235,-1.54965,0.0202435,0.7674,0.605075,-0.635844,-0.872243,1.73653,-0.243457,-1.39044,-0.234673,-0.772328,1.02576,0.00787758,0.210627,-0.520125,0.628763,0.753232,0.338517,0.0268597,0.409324,0.634455,-0.303497,-0.597543,-0.385126,0.000899015,-0.0818552,0.0103348,-0.0580436,0.174858,-0.629461,0.698447,-0.0660822,0.584945,0.568549,0.105774,0.222818,0.110815,-0.332016,-0.25723,0.273451,0.0113797,0.238332,0.00594334,-0.176567,0.302986,0.053029,0.27681,0.35164,0.2938,0.339195,0.176541,0.620263,2.11673,2.03556,2.67392,3.89144,5.59502,10.5776,28.9341,69.788,127.133,164.998,171.215,144.131
530,0,0,0,0,0,0,0,0,0,0,0,0,0,0,0,0,0,0,8.91045,4.05241,3.02066,2.06088,1.34188,3.48948,1.74147,0.665278,1.78498,0.188312,-0.581306,-0.0340689,0.326706,0.698325,1.26253,0.48019,0.371543,1.90378,0.902552,0.816686,-0.568824,-0.400476,0.0852166,1.03219,-0.948454,0.126477,0.999152,0.574679,-0.864688,-1.19894,1.45345,-0.349249,-0.891989,-0.0863395,-0.409999,-0.556082,-0.00581918,0.867397,0.353749,1.10102,0.260481,0.463266,-0.331961,0.259776,0.451501,-0.53451,-0.200425,0.174028,-0.129832,0.328184,0.0734265,-0.554474,-0.170744,-0.0978053,0.464981,-0.409675,0.950713,0.489253,0.183653,0.142879,0.182346,0.226548,-0.0560116,0.610176,0.0286799,-0.0901758,-0.217674,0.379788,0.557928,0.423883,0.0401041,0.40545,0.220014,0.199233,-0.0179586,0.230727,1.30859,1.48337,2.10129,3.54691,4.96307,5.68603,12.6094,37.2349,86.505,142.462,176.372,168.072
532,0,0,0,0,0,0,0,0,0,0,0,0,0,0,0,0,0,0,11.4538,8.17749,3.60036,2.00377,1.893,2.07082,1.25625,-0.318787,1.68794,0.00558518,-1.24029,0.430306,-0.101865,0.69698,1.4146,0.597892,0.000186606,1.39132,-0.378106,0.430286,-0.00221876,-0.0796627,1.0898,1.08555,-0.375152,-1.21902,0.505873,-0.00457619,-0.952943,-0.704746,0.787442,0.000823075,-0.194628,0.689121,0.284325,-0.68922,0.163204,0.336549,1.25877,1.42561,-0.186339,-0.115762,-0.754855,0.230675,0.218217,0.506853,0.117421,0.118379,-0.237132,0.233433,-0.111799,-0.429178,-0.183736,0.39302,-0.0910002,0.499431,0.190303,0.565926,0.455896,0.131231,0.222176,0.472903,0.383003,0.548372,0.00320091,0.108494,-0.112155,0.34967,0.569348,0.538394,0.263442,0.14054,0.817827,0.0573771,-0.113666,0.523096,1.08497,0.818087,1.94168,2.70052,4.24867,4.29192,6.80295,18.2098,51.3246,104.553,161.215,178.296
534,0,0,0,0,0,0,0,0,0,0,0,0,0,0,0,0,0,0,0,12.3278,6.22026,2.49451,1.08632,2.07881,1.24618,0.569622,0.926982,0.442815,0.442523,1.2507,-0.799606,0.239857,0.582888,0.556604,0.473086,0.551327,-0.466893,0.285102,0.826299,0.370576,0.693565,0.190711,0.218722,-1.05999,0.385513,-0.796144,-0.472941,-1.1512,0.849339,0.270489,-0.225429,0.329958,0.235054,-0.617388,-0.128618,-0.0158102,1.09085,0.9579,0.865562,0.363227,-0.0884046,0.0416427,-0.269253,1.35387,0.305273,0.21519,0.333089,0.190533,0.0205191,-0.54099,-0.128933,0.00969375,-0.648181,1.00153,0.420993,0.552264,0.606407,0.45169,0.164585,0.0262019,0.373264,0.654018,-0.169449,0.213898,-0.240985,0.221163,0.71094,0.367337,0.475357,0.143154,0.584795,0.229917,0.191361,0.614204,0.811417,0.485275,1.43155,1.3992,3.49053,4.17823,4.55454,8.2427,25.5496,64.3057,128.043,169.669
536,0,0,0,0,0,0,0,0,0,0,0,0,0,0,0,0,0,0,0,8.77891,6.63608,5.37756,1.10657,2.47055,0.402021,1.70765,1.92219,1.73741,0.37649,1.56958,-0.939666,-0.635762,0.80922,0.0595219,0.575481,0.336033,0.0121125,0.552559,0.406007,-0.282888,0.0104121,0.440383,0.217669,-0.317727,-0.337806,-1.32929,0.0425949,-1.00456,0.909652,-0.294869,0.127744,0.385772,-0.191883,0.115331,-0.486469,0.510374,0.688476,0.224804,1.05597,0.799593,0.288131,-0.00247342,-0.909173,0.714928,0.29062,0.472016,-0.0503781,0.36439,-0.145311,-0.0598839,-0.150562,0.0338174,-0.0728157,0.877005,1.05401,0.488651,0.53087,0.694392,0.187209,-0.169927,0.0452249,0.58728,0.140626,0.163978,-0.373344,-0.162566,0.436523,0.569979,0.19356,-0.0995002,0.436732,0.144087,0.504767,0.311951,0.723169,0.277733,1.2483,0.977939,2.89712,3.23067,4.03431,5.19376,12.7383,34.6042,86.651,138.36
538,0,0,0,0,0,0,0,0,0,0,0,0,0,0,0,0,0,0,0,0,7.27308,7.20059,1.56673,0.80879,1.0139,0.119467,2.414,1.67036,0.689578,1.27306,0.613355,-0.466653,0.991611,-0.209927,-0.125212,-0.580169,-0.127497,0.111005,-0.493381,-1.34331,-0.337115,0.587385,0.299886,0.236213,-0.544614,-1.24912,-0.211688,-0.213299,0.234205,-0.35232,-0.553359,0.270706,-0.226192,0.234619,-0.0341429,1.22652,0.249187,0.0268706,-0.0345922,0.58238,0.443721,-0.512339,-0.282843,-0.218237,-0.0914295,0.284397,-0.280412,-0.201487,0.300082,0.0864946,0.0700731,0.476743,-0.0865503,0.697824,0.73501,0.425759,0.462492,0.62094,0.400821,0.0595316,-0.166731,0.0469526,0.600145,0.233304,-0.094277,-0.284464,-0.00372879,0.57298,0.096248,-0.416322,0.55541,-0.0229338,0.379431,0.374962,0.508941,0.248697,0.643585,0.842659,2.17677,2.20664,3.85862,4.80321,6.82542,16.5675,49.3992,99.8696
540,0,0,0,0,0,0,0,0,0,0,0,0,0,0,0,0,0,0,0,0,10.5024,8.13874,2.73954,-0.374178,1.66252,1.25538,1.00769,0.794479,1.07544,0.0854834,1.73509,0.296205,1.2889,0.581678,-0.984944,0.657534,-0.313291,-0.218551,-0.548224,-1.13537,-0.392151,0.987998,0.0271286,0.20073,-0.502618,-1.10092,-0.532772,-0.792438,-0.247936,-0.603479,-0.763842,0.397287,-0.671003,0.0620055,0.776468,0.838681,0.445159,0.183788,0.577138,0.680866,1.13229,-0.434464,-0.145145,0.0291833,0.106938,-0.101055,0.00338272,-0.464323,0.549977,0.0620454,0.360094,0.151746,-0.412188,0.288177,-0.179021,0.443819,0.363746,0.37527,1.192,0.326927,-0.486429,-0.0725074,0.541418,0.453875,0.0780124,0.481773,0.144356,0.193263,0.19433,-0.153325,0.306818,-0.166778,0.110609,0.444114,0.925577,0.0447722,0.0448008,0.590413,0.87848,1.96317,3.67594,4.24844,4.43079,8.5222,23.8775,61.7678
542,0,0,0,0,0,0,0,0,0,0,0,0,0,0,0,0,0,0,0,0,0,7.5983,2.5966,2.30259,2.55511,1.97146,-0.389959,0.855161,0.0706782,0.0782994,1.59829,-0.975494,0.344834,0.706882,-1.35305,1.70509,-0.42118,-0.421699,-0.369585,0.345421,0.324527,1.34092,0.0936618,0.0964645,-0.775573,-0.838309,-1.02917,-0.891647,-0.241902,-0.977139,-0.00182581,0.83929,-0.483893,-0.170672,0.367792,0.471554,0.91046,1.13785,0.261319,0.605015,0.191023,-0.344019,-0.7093,0.418391,0.727429,-0.162225,-0.444701,-0.241579,0.0196157,0.148233,0.453762,-0.0535492,-0.294865,-0.0828557,0.145032,0.959876,0.20731,0.517324,1.25923,0.261801,-0.446766,0.307199,0.32166,0.358913,-0.346038,0.547054,0.0318784,-0.0837251,0.265677,0.00968793,0.3551,-0.0268166,0.13054,-0.0649033,0.849726,-0.232152,0.136967,0.291851,0.187342,1.34185,2.66663,2.99756,4.01975,4.44004,10.4443,30.0286
544,0,0,0,0,0,0,0,0,0,0,0,0,0,0,0,0,0,0,0,0,0,6.55572,2.61551,3.1272,3.20192,1.28601,1.55485,-0.294031,-0.242736,0.319359,0.991499,-0.369528,-0.0807416,1.14303,-0.669533,0.0330478,0.0476551,-1.1652,-0.662955,-0.211065,1.03815,1.08479,0.14646,-0.199235,-0.907444,-0.652572,-0.974207,-0.596097,0.150503,-0.732339,0.203144,1.23351,0.194902,-0.540467,-0.104505,1.52014,1.11112,2.0389,0.175741,0.0847316,-0.622188,-0.311395,-0.522397,1.02289,0.799581,0.268956,-0.469515,0.15002,0.175681,-0.113189,0.980151,0.104502,-0.0920791,-0.230724,0.24257,0.469658,-0.0463674,0.572537,0.668363,0.411062,0.170037,0.563046,0.0599888,0.299291,-0.367281,0.292916,-0.128106,0.2297,0.270241,-0.259555,0.151613,0.35818,-0.139951,-0.120022,0.202327,-0.219253,0.556361,0.0986154,0.266107,0.721816,1.60036,1.80074,3.65589,3.46131,5.3405,13.7418
546,0,0,0,0,0,0,0,0,0,0,0,0,0,0,0,0,0,0,0,0,0,0,3.50668,1.82629,2.41826,0.28468,1.98023,0.862496,-1.19871,0.190076,0.736463,0.222436,0.544815,1.30855,0.481149,2.11812,-0.4156,-1.48055,-0.71713,-0.803876,0.851117,0.953864,-0.565089,0.0769728,-0.982285,0.531271,-0.571852,-0.879974,-0.46523,-0.335404,1.21305,0.998721,0.509572,0.396018,-0.239745,0.867198,1.30392,0.904363,-0.339164,0.0257869,-0.377839,-0.0701945,-0.106503,0.865663,0.652591,0.255616,-0.251271,0.0888958,0.720661,-0.163915,0.936954,0.386619,-0.201936,-0.369399,-0.150253,-0.184244,-0.428405,0.655513,0.300129,0.97191,0.610069,0.521314,0.0791022,0.405028,-0.272605,0.154312,0.275421,0.376635,0.339008,-0.348422,0.128646,0.356757,0.36872,0.113683,-0.164373,-0.253498,0.463922,0.24655,0.331479,0.743081,0.916544,1.17631,2.46773,3.61306,3.73869,6.37168
548,0,0,0,0,0,0,0,0,0,0,0,0,0,0,0,0,0,0,0,0,0,0,3.43521,4.07485,1.85615,-0.361268,-0.205425,0.878892,-2.09778,-0.651013,0.715434,-0.200749,0.563851,-0.56382,1.10054,3.21789,-0.902126,-0.741356,-0.534965,-0.4248,0.196316,0.417113,-0.323497,-0.46588,-0.882589,0.324038,-0.0859118,-0.384717,-0.797624,0.447416,1.91608,0.745448,-0.0611198,0.463705,0.00155204,-0.398094,1.94388,0.284054,-0.0577989,0.586374,-0.60807,-0.0887329,-0.738473,0.494486,0.210134,0.405888,-0.308485,-0.145904,0.853354,0.145544,0.00699914,0.666573,-0.27038,0.245537,-0.0474382,0.0666064,-0.273476,1.07908,0.572875,0.778684,0.574962,1.01521,0.60604,0.378029,-0.0893905,-0.264134,0.754888,-0.279881,0.0667476,-0.182019,0.290938,0.361118,0.611168,0.431976,-0.0497307,-0.104068,0.121806,0.323883,0.348776,0.898322,0.56673,1.17324,1.8256,3.15734,3.82024,3.83549
550,0,0,0,0,0,0,0,0,0,0,0,0,0,0,0,0,0,0,0,0,0,0,0,6.91581,1.1614,1.05976,-0.246777,-0.223314,-1.84125,-0.971819,-0.226122,0.0697894,0.940281,0.0219934,0.58771,1.02738,-0.417337,-0.950153,-0.237033,-0.216092,-0.256376,-0.435119,1.26232,-1.19092,-1.22332,0.383453,-0.367002,-0.0104555,-0.844468,0.787552,0.585564,0.100521,0.00212232,0.296483,0.883844,-0.538832,0.970137,0.970635,0.710778,0.296386,-0.240797,0.0723064,-0.26487,0.0629263,-0.038738,0.0160799,0.179814,-0.185395,0.396881,0.0688359,-0.092983,0.328236,-0.547338,0.138146,0.672423,0.211898,-0.249903,0.63008,0.39014,0.482409,0.551792,1.7155,0.107432,0.642692,0.0928413,-0.0294894,0.225389,-0.464008,0.020524,0.0503516,-0.0362989,0.33589,0.264846,0.52601,-0.0119801,0.0545403,0.233542,0.339253,0.300521,0.620487,0.452231,1.01132,1.89721,1.9999,3.39367,3.34623
552,0,0,0,0,0,0,0,0,0,0,0,0,0,0,0,0,0,0,0,0,0,0,0,5.6394,2.29242,0.392619,0.283661,1.10688,-1.17876,0.179408,-0.459424,0.265119,0.441687,-0.085368,-0.190787,0.183239,0.214355,-0.884651,0.0334259,0.0714105,0.385819,-0.467292,0.349597,-0.836637,-0.968225,1.03847,-0.187139,-0.0939658,-0.474705,0.474871,0.403685,-0.289762,0.946324,0.769921,1.11642,-0.568733,-0.13163,0.619827,0.650483,-0.708696,0.424469,-0.475973,0.287398,-0.221185,0.345027,-0.959127,-0.182486,-0.00545982,-0.295796,-0.477363,0.525222,-0.0791895,-0.211489,-0.257438,0.519521,0.0708563,-0.221076,0.377291,0.168688,0.208038,0.975327,1.20098,-0.0757164,0.667175,-0.31673,0.19614,-0.382361,-0.0739716,-0.0777223,0.10612,0.0852865,0.0913141,0.130008,0.0900544,0.251922,0.177313,0.349491,0.215326,0.344034,0.268465,0.287227,0.972472,1.50535,1.41262,2.2171,3.5681
554,0,0,0,0,0,0,0,0,0,0,0,0,0,0,0,0,0,0,0,0,0,0,0,0,3.21428,0.489145,-0.173891,2.31511,0.206858,1.53642,-0.486919,-0.988853,-0.24535,-0.131358,0.515407,0.675836,0.013906,-0.674477,-0.18319,-0.153625,0.150984,0.152084,-0.794275,-0.134435,-0.448659,0.384714,0.579141,-0.00595105,0.470111,-0.0079614,-0.0585581,0.420169,1.17694,1.27889,0.224752,-0.65013,-0.402904,-0.101544,-0.367894,-0.420651,0.789752,-0.344195,-0.178279,0.422075,0.119696,-0.698247,-0.314635,-0.0886449,0.432049,-0.716074,0.651146,-0.0827869,-0.0173326,-0.10902,-0.0751268,0.320514,0.266887,0.669571,0.0676932,0.0542915,0.444159,0.558199,0.0328921,0.325881,-0.0738319,0.583034,0.10282,0.312322,-0.062211,0.461629,0.0946867,0.264633,-0.122604,0.0880635,0.508436,-0.205172,-0.0369951,-0.265413,0.236303,0.291323,0.250721,0.806512,0.691871,1.24214,1.5174,3.14179
556,0,0,0,0,0,0,0,0,0,0,0,0,0,0,0,0,0,0,0,0,0,0,0,0,2.64226,1.63596,-0.610569,2.18749,0.0353105,1.29869,0.224228,-1.61348,-0.363918,0.182509,1.04651,0.767444,-0.437135,-0.348434,0.77664,-0.620975,-0.584971,0.0258846,-0.787794,0.54037,-0.193113,-0.72758,0.187271,-0.378948,1.0854,0.261648,0.22487,0.253753,-0.305709,0.885736,-0.453015,-0.936533,-0.31261,-0.19879,-0.231474,-0.243707,0.696936,0.135437,0.107772,0.108321,-0.580611,-0.303943,0.287834,0.252895,0.706377,-0.528898,-0.169028,-0.394109,-0.115896,-0.247577,-0.314149,0.248861,0.198076,0.464171,-0.218631,0.433765,0.107446,0.557383,-0.0551327,0.125845,0.286948,0.73287,0.293005,0.498067,-0.137661,0.429928,-0.137968,0.323707,-0.293178,0.0455587,0.308337,-0.326972,-0.404479,-0.394715,0.169823,0.456901,0.232446,0.802046,0.262899,1.17411,1.2825,1.99334
558,0,0,0,0,0,0,0,0,0,0,0,0,0,0,0,0,0,0,0,0,0,0,0,0,0,2.9576,1.37207,2.63226,-0.318915,1.56626,0.611342,0.184175,-0.137919,0.724536,0.163197,0.779338,-0.10834,-0.556807,0.563407,-0.700152,0.767092,-0.622048,-0.966938,-0.146001,-0.461599,-0.956237,-0.764315,0.485078,1.42042,0.304975,0.645275,-0.00232059,-0.691396,0.487445,-0.74276,-1.29272,-0.405975,0.102803,-0.115901,-0.262054,-0.465838,-0.0165232,0.448335,0.168922,-0.266377,-0.499195,-0.000663071,0.518867,-0.0284579,-0.322762,-0.228313,-0.219546,-0.0688707,-0.25617,-0.398643,0.0273186,0.0237711,0.531432,0.00275111,0.416444,0.400348,0.477292,0.166302,0.174758,0.198619,0.312448,0.0218265,0.14763,-0.199113,0.203912,0.274046,0.321075,-0.070434,-0.0943604,0.113288,-0.018378,0.0973878,0.203856,0.508741,0.39167,0.312102,0.787889,0.488439,0.87333,1.1446,1.25983
560,0,0,0,0,0,0,0,0,0,0,0,0,0,0,0,0,0,0,0,0,0,0,0,0,0,4.02796,3.32371,1.84753,0.304789,2.5409,0.577931,0.794777,-0.143706,1.30253,-0.116668,0.811193,-0.00922651,-0.534323,-0.730622,-0.466619,0.358405,-0.514805,-0.0588405,-0.918687,0.259839,-0.630746,-0.630137,1.01714,0.694794,-0.135114,0.0705581,-0.588642,-0.283669,-0.651957,-0.788131,-1.06402,-0.410703,0.169578,-0.1631,0.195657,-0.248276,-0.336949,-0.112395,0.230993,0.230467,-0.650743,-0.189287,0.378017,0.262775,-0.343549,0.0239029,-0.325916,0.122975,0.071044,-0.140953,0.213477,0.0549047,0.659424,0.198692,0.0493899,0.19825,0.109244,0.458871,0.115143,0.136699,0.16141,-0.28093,-0.131263,-0.228787,-0.194321,0.148265,0.280401,0.0341503,-0.314903,0.0833965,0.0319729,0.403078,0.0530246,0.16852,0.193598,0.502349,0.544888,0.753229,0.358558,0.820815,0.839864
